#Spectra: 1
Emin______Emax      -1.556462432348324E+01  2.443537567651676E+01
EminPole__EmaxPole  -5.383930493629784E+00  1.849368854576104E+01
dE________Gamma      4.000000000000000E-02  1.000000000000000E-01
Energy               Re[0]                  Im[0]                
-1.556462432348E+01  4.081247584611913E-03  2.013427188711573E-05
-1.552462432348E+01  4.544913828689122E-03  2.206727407649617E-05
-1.548462432348E+01  4.658919715157844E-03  2.261154647740598E-05
-1.544462432348E+01  4.717044730124101E-03  2.293521891898856E-05
-1.540462432348E+01  4.756350192629118E-03  2.318551300331803E-05
-1.536462432348E+01  4.787126482042580E-03  2.340327470076316E-05
-1.532462432348E+01  4.813355207119360E-03  2.360430269433436E-05
-1.528462432348E+01  4.836899349697315E-03  2.379599138741013E-05
-1.524462432348E+01  4.858746594591866E-03  2.398226607100876E-05
-1.520462432348E+01  4.879469345185761E-03  2.416540766798884E-05
-1.516462432348E+01  4.899422319081455E-03  2.434683602400273E-05
-1.512462432348E+01  4.918837168129367E-03  2.452748474987290E-05
-1.508462432348E+01  4.937871713608807E-03  2.470799614608906E-05
-1.504462432348E+01  4.956637307569185E-03  2.488882946118349E-05
-1.500462432348E+01  4.975214873496726E-03  2.507032432124076E-05
-1.496462432348E+01  4.993664736940968E-03  2.525273958173084E-05
-1.492462432348E+01  5.012032880228698E-03  2.543627803464506E-05
-1.488462432348E+01  5.030355051658654E-03  2.562110263363480E-05
-1.484462432348E+01  5.048659541144967E-03  2.580734745010522E-05
-1.480462432348E+01  5.066969101179839E-03  2.599512525427049E-05
-1.476462432348E+01  5.085302305095749E-03  2.618453287546405E-05
-1.472462432348E+01  5.103674525942175E-03  2.637565506607546E-05
-1.468462432348E+01  5.122098654093851E-03  2.656856733564202E-05
-1.464462432348E+01  5.140585631481416E-03  2.676333806260205E-05
-1.460462432348E+01  5.159144854888407E-03  2.696003009066590E-05
-1.456462432348E+01  5.177784484297146E-03  2.715870195173369E-05
-1.452462432348E+01  5.196511681394998E-03  2.735940881437090E-05
-1.448462432348E+01  5.215332796042628E-03  2.756220322800306E-05
-1.444462432348E+01  5.234253513504859E-03  2.776713571325611E-05
-1.440462432348E+01  5.253278971770120E-03  2.797425523517473E-05
-1.436462432348E+01  5.272413855836001E-03  2.818360958639308E-05
-1.432462432348E+01  5.291662474090333E-03  2.839524570044740E-05
-1.428462432348E+01  5.311028820652921E-03  2.860920991044105E-05
-1.424462432348E+01  5.330516626619247E-03  2.882554816463405E-05
-1.420462432348E+01  5.350129402464485E-03  2.904430620784331E-05
-1.416462432348E+01  5.369870473356997E-03  2.926552973553474E-05
-1.412462432348E+01  5.389743008746014E-03  2.948926452598179E-05
-1.408462432348E+01  5.409750047297764E-03  2.971555655471643E-05
-1.404462432348E+01  5.429894518029521E-03  2.994445209462514E-05
-1.400462432348E+01  5.450179258320208E-03  3.017599780436191E-05
-1.396462432348E+01  5.470607029340792E-03  3.041024080722935E-05
-1.392462432348E+01  5.491180529343871E-03  3.064722876226312E-05
-1.388462432348E+01  5.511902405168277E-03  3.088700992893554E-05
-1.384462432348E+01  5.532775262249793E-03  3.112963322663462E-05
-1.380462432348E+01  5.553801673376224E-03  3.137514828987293E-05
-1.376462432348E+01  5.574984186383303E-03  3.162360552001564E-05
-1.372462432348E+01  5.596325330954372E-03  3.187505613418756E-05
-1.368462432348E+01  5.617827624659062E-03  3.212955221191013E-05
-1.364462432348E+01  5.639493578344193E-03  3.238714673993594E-05
-1.360462432348E+01  5.661325700971646E-03  3.264789365567550E-05
-1.356462432348E+01  5.683326503983367E-03  3.291184788955559E-05
-1.352462432348E+01  5.705498505260787E-03  3.317906540659969E-05
-1.348462432348E+01  5.727844232736258E-03  3.344960324748355E-05
-1.344462432348E+01  5.750366227705416E-03  3.372351956928596E-05
-1.340462432348E+01  5.773067047882046E-03  3.400087368612885E-05
-1.336462432348E+01  5.795949270231588E-03  3.428172610987936E-05
-1.332462432348E+01  5.819015493613967E-03  3.456613859106748E-05
-1.328462432348E+01  5.842268341262639E-03  3.485417416015876E-05
-1.324462432348E+01  5.865710463122905E-03  3.514589716930950E-05
-1.320462432348E+01  5.889344538069716E-03  3.544137333472013E-05
-1.316462432348E+01  5.913173276022677E-03  3.574066977969691E-05
-1.312462432348E+01  5.937199419973479E-03  3.604385507852217E-05
-1.308462432348E+01  5.961425747939601E-03  3.635099930123030E-05
-1.304462432348E+01  5.985855074856260E-03  3.666217405938235E-05
-1.300462432348E+01  6.010490254417199E-03  3.697745255292636E-05
-1.296462432348E+01  6.035334180873947E-03  3.729690961823146E-05
-1.292462432348E+01  6.060389790801920E-03  3.762062177737968E-05
-1.288462432348E+01  6.085660064841202E-03  3.794866728879942E-05
-1.284462432348E+01  6.111148029418753E-03  3.828112619932376E-05
-1.280462432348E+01  6.136856758458550E-03  3.861808039775642E-05
-1.276462432348E+01  6.162789375085086E-03  3.895961367003049E-05
-1.272462432348E+01  6.188949053325806E-03  3.930581175604263E-05
-1.268462432348E+01  6.215339019817178E-03  3.965676240825114E-05
-1.264462432348E+01  6.241962555518848E-03  4.001255545212382E-05
-1.260462432348E+01  6.268822997440398E-03  4.037328284852646E-05
-1.256462432348E+01  6.295923740384319E-03  4.073903875814448E-05
-1.252462432348E+01  6.323268238709078E-03  4.110991960803224E-05
-1.248462432348E+01  6.350860008116061E-03  4.148602416038834E-05
-1.244462432348E+01  6.378702627463377E-03  4.186745358365871E-05
-1.240462432348E+01  6.406799740610375E-03  4.225431152607226E-05
-1.236462432348E+01  6.435155058295472E-03  4.264670419171894E-05
-1.232462432348E+01  6.463772360050916E-03  4.304474041928309E-05
-1.228462432348E+01  6.492655496157298E-03  4.344853176355101E-05
-1.224462432348E+01  6.521808389640853E-03  4.385819257981486E-05
-1.220462432348E+01  6.551235038316616E-03  4.427384011130289E-05
-1.216462432348E+01  6.580939516880414E-03  4.469559457976938E-05
-1.212462432348E+01  6.610925979052553E-03  4.512357927938427E-05
-1.208462432348E+01  6.641198659776588E-03  4.555792067406995E-05
-1.204462432348E+01  6.671761877475577E-03  4.599874849843799E-05
-1.200462432348E+01  6.702620036369686E-03  4.644619586248810E-05
-1.196462432348E+01  6.733777628857584E-03  4.690039936023541E-05
-1.192462432348E+01  6.765239237965336E-03  4.736149918244562E-05
-1.188462432348E+01  6.797009539865765E-03  4.782963923366073E-05
-1.184462432348E+01  6.829093306471756E-03  4.830496725371270E-05
-1.180462432348E+01  6.861495408107090E-03  4.878763494392652E-05
-1.176462432348E+01  6.894220816257992E-03  4.927779809822998E-05
-1.172462432348E+01  6.927274606409615E-03  4.977561673939315E-05
-1.168462432348E+01  6.960661960970684E-03  5.028125526063868E-05
-1.164462432348E+01  6.994388172290809E-03  5.079488257286726E-05
-1.160462432348E+01  7.028458645774004E-03  5.131667225776578E-05
-1.156462432348E+01  7.062878903093156E-03  5.184680272707238E-05
-1.152462432348E+01  7.097654585509482E-03  5.238545738828943E-05
-1.148462432348E+01  7.132791457301836E-03  5.293282481715160E-05
-1.144462432348E+01  7.168295409310487E-03  5.348909893717413E-05
-1.140462432348E+01  7.204172462600405E-03  5.405447920661960E-05
-1.136462432348E+01  7.240428772249419E-03  5.462917081324419E-05
-1.132462432348E+01  7.277070631266386E-03  5.521338487720490E-05
-1.128462432348E+01  7.314104474645437E-03  5.580733866252428E-05
-1.124462432348E+01  7.351536883562036E-03  5.641125579754042E-05
-1.120462432348E+01  7.389374589717037E-03  5.702536650478682E-05
-1.116462432348E+01  7.427624479835563E-03  5.764990784077458E-05
-1.112462432348E+01  7.466293600327292E-03  5.828512394617916E-05
-1.108462432348E+01  7.505389162115389E-03  5.893126630695658E-05
-1.104462432348E+01  7.544918545641849E-03  5.958859402695233E-05
-1.100462432348E+01  7.584889306056753E-03  6.025737411259244E-05
-1.096462432348E+01  7.625309178600276E-03  6.093788177028468E-05
-1.092462432348E+01  7.666186084185705E-03  6.163040071719524E-05
-1.088462432348E+01  7.707528135192977E-03  6.233522350610417E-05
-1.084462432348E+01  7.749343641482319E-03  6.305265186508802E-05
-1.080462432348E+01  7.791641116638129E-03  6.378299705281933E-05
-1.076462432348E+01  7.834429284453838E-03  6.452658023032810E-05
-1.072462432348E+01  7.877717085669091E-03  6.528373285011529E-05
-1.068462432348E+01  7.921513684971099E-03  6.605479706356851E-05
-1.064462432348E+01  7.965828478272725E-03  6.684012614768854E-05
-1.060462432348E+01  8.010671100280578E-03  6.764008495219808E-05
-1.056462432348E+01  8.056051432366859E-03  6.845505036817494E-05
-1.052462432348E+01  8.101979610760195E-03  6.928541181942371E-05
-1.048462432348E+01  8.148466035070467E-03  7.013157177787754E-05
-1.044462432348E+01  8.195521377164483E-03  7.099394630441019E-05
-1.040462432348E+01  8.243156590409743E-03  7.187296561652557E-05
-1.036462432348E+01  8.291382919304799E-03  7.276907468449056E-05
-1.032462432348E+01  8.340211909515593E-03  7.368273385758443E-05
-1.028462432348E+01  8.389655418338422E-03  7.461441952224824E-05
-1.024462432348E+01  8.439725625611471E-03  7.556462479403954E-05
-1.020462432348E+01  8.490435045098074E-03  7.653386024543244E-05
-1.016462432348E+01  8.541796536366025E-03  7.752265467164015E-05
-1.012462432348E+01  8.593823317189412E-03  7.853155589679088E-05
-1.008462432348E+01  8.646528976500183E-03  7.956113162295634E-05
-1.004462432348E+01  8.699927487919213E-03  8.061197032470512E-05
-1.000462432348E+01  8.754033223897823E-03  8.168468219204661E-05
-9.964624323483E+00  8.808860970502923E-03  8.277990012484363E-05
-9.924624323483E+00  8.864425942881405E-03  8.389828078199156E-05
-9.884624323483E+00  8.920743801440803E-03  8.504050568890798E-05
-9.844624323483E+00  8.977830668786784E-03  8.620728240714374E-05
-9.804624323483E+00  9.035703147459674E-03  8.739934577020928E-05
-9.764624323483E+00  9.094378338515697E-03  8.861745919002392E-05
-9.724624323483E+00  9.153873861001324E-03  8.986241603873564E-05
-9.684624323483E+00  9.214207872372487E-03  9.113504111102373E-05
-9.644624323483E+00  9.275399089913849E-03  9.243619217239984E-05
-9.604624323483E+00  9.337466813217420E-03  9.376676159945829E-05
-9.564624323483E+00  9.400430947783442E-03  9.512767811850162E-05
-9.524624323483E+00  9.464312029811305E-03  9.651990864948924E-05
-9.484624323483E+00  9.529131252252734E-03  9.794446026281652E-05
-9.444624323483E+00  9.594910492205117E-03  9.940238225705932E-05
-9.404624323483E+00  9.661672339727837E-03  1.008947683664896E-04
-9.364624323483E+00  9.729440128171021E-03  1.024227591079100E-04
-9.324624323483E+00  9.798237966112575E-03  1.039875442771739E-04
-9.284624323483E+00  9.868090771006588E-03  1.055903656066335E-04
-9.244624323483E+00  9.939024304653739E-03  1.072325195957563E-04
-9.204624323483E+00  1.001106521061309E-02  1.089153605282074E-04
-9.164624323483E+00  1.008424105368363E-02  1.106403036898872E-04
-9.124624323483E+00  1.015858036159426E-02  1.124088288037147E-04
-9.084624323483E+00  1.023411266905114E-02  1.142224836983794E-04
-9.044624323483E+00  1.031086856430437E-02  1.160828882298713E-04
-9.004624323483E+00  1.038887973840780E-02  1.179917384763467E-04
-8.964624323483E+00  1.046817903736079E-02  1.199508112288246E-04
-8.924624323483E+00  1.054880051733614E-02  1.219619688023497E-04
-8.884624323483E+00  1.063077950321525E-02  1.240271641946359E-04
-8.844624323483E+00  1.071415265067084E-02  1.261484466218382E-04
-8.804624323483E+00  1.079895801205724E-02  1.283279674640373E-04
-8.764624323483E+00  1.088523510639211E-02  1.305679866562713E-04
-8.724624323483E+00  1.097302499373681E-02  1.328708795645926E-04
-8.684624323483E+00  1.106237035431181E-02  1.352391443906753E-04
-8.644624323483E+00  1.115331557271202E-02  1.376754101530240E-04
-8.604624323483E+00  1.124590682762168E-02  1.401824452978995E-04
-8.564624323483E+00  1.134019218746458E-02  1.427631669987566E-04
-8.524624323483E+00  1.143622171246683E-02  1.454206512093407E-04
-8.484624323483E+00  1.153404756365399E-02  1.481581435427496E-04
-8.444624323483E+00  1.163372411935605E-02  1.509790710568069E-04
-8.404624323483E+00  1.173530809984770E-02  1.538870550351649E-04
-8.364624323483E+00  1.183885870081624E-02  1.568859248637831E-04
-8.324624323483E+00  1.194443773641609E-02  1.599797331140039E-04
-8.284624323483E+00  1.205210979274926E-02  1.631727719565511E-04
-8.244624323483E+00  1.216194239269581E-02  1.664695910456485E-04
-8.204624323483E+00  1.227400617311622E-02  1.698750170293476E-04
-8.164624323483E+00  1.238837507555755E-02  1.733941748614005E-04
-8.124624323483E+00  1.250512655171614E-02  1.770325111119644E-04
-8.084624323483E+00  1.262434178504922E-02  1.807958194995061E-04
-8.044624323483E+00  1.274610593008194E-02  1.846902688950147E-04
-8.004624323483E+00  1.287050837113396E-02  1.887224340826043E-04
-7.964624323483E+00  1.299764300238666E-02  1.928993295985001E-04
-7.924624323483E+00  1.312760853143968E-02  1.972284470141180E-04
-7.884624323483E+00  1.326050880876055E-02  2.017177960794269E-04
-7.844624323483E+00  1.339645318572440E-02  2.063759502012226E-04
-7.804624323483E+00  1.353555690427300E-02  2.112120967987814E-04
-7.764624323483E+00  1.367794152160505E-02  2.162360931582708E-04
-7.724624323483E+00  1.382373537374422E-02  2.214585284993137E-04
-7.684624323483E+00  1.397307408233639E-02  2.268907930747396E-04
-7.644624323483E+00  1.412610110960271E-02  2.325451552507105E-04
-7.604624323483E+00  1.428296836704439E-02  2.384348476627947E-04
-7.564624323483E+00  1.444383688426659E-02  2.445741637184622E-04
-7.524624323483E+00  1.460887754518548E-02  2.509785659233984E-04
-7.484624323483E+00  1.477827189992468E-02  2.576648077544199E-04
-7.444624323483E+00  1.495221306192584E-02  2.646510710938841E-04
-7.404624323483E+00  1.513090670122105E-02  2.719571215892167E-04
-7.364624323483E+00  1.531457214648782E-02  2.796044847190120E-04
-7.324624323483E+00  1.550344361047642E-02  2.876166458495483E-04
-7.284624323483E+00  1.569777155572556E-02  2.960192781718411E-04
-7.244624323483E+00  1.589782422024141E-02  3.048405031438005E-04
-7.204624323483E+00  1.610388932609546E-02  3.141111889553528E-04
-7.164624323483E+00  1.631627599781558E-02  3.238652936253121E-04
-7.124624323483E+00  1.653531692214070E-02  3.341402606768945E-04
-7.084624323483E+00  1.676137078636130E-02  3.449774769873642E-04
-7.044624323483E+00  1.699482503929702E-02  3.564228044480126E-04
-7.004624323483E+00  1.723609902725041E-02  3.685271996090284E-04
-6.964624323483E+00  1.748564756737985E-02  3.813474386574055E-04
-6.924624323483E+00  1.774396503330747E-02  3.949469690648673E-04
-6.884624323483E+00  1.801159004301115E-02  4.093969142844731E-04
-6.844624323483E+00  1.828911085788956E-02  4.247772642841289E-04
-6.804624323483E+00  1.857717162532810E-02  4.411782929040190E-04
-6.764624323483E+00  1.887647962640911E-02  4.587022535799334E-04
-6.724624323483E+00  1.918781372729619E-02  4.774654186550108E-04
-6.684624323483E+00  1.951203427952751E-02  4.976005453606630E-04
-6.644624323483E+00  1.985009477397053E-02  5.192598750346399E-04
-6.604624323483E+00  2.020305562956664E-02  5.426188032804189E-04
-6.564624323483E+00  2.057210059671084E-02  5.678804003950707E-04
-6.524624323483E+00  2.095855638368900E-02  5.952810175306534E-04
-6.484624323483E+00  2.136391628342329E-02  6.250972904838605E-04
-6.444624323483E+00  2.178986880136178E-02  6.576549581113478E-04
-6.404624323483E+00  2.223833258415302E-02  6.933400584477819E-04
-6.364624323483E+00  2.271149935194451E-02  7.326132709579516E-04
-6.324624323483E+00  2.321188708679838E-02  7.760284655660611E-04
-6.284624323483E+00  2.374240648726085E-02  8.242569403695916E-04
-6.244624323483E+00  2.430644475537958E-02  8.781194458277604E-04
-6.204624323483E+00  2.490797227362314E-02  9.386290073341950E-04
-6.164624323483E+00  2.555167986242160E-02  1.007048937203079E-03
-6.124624323483E+00  2.624315740453201E-02  1.084972544948134E-03
-6.084624323483E+00  2.698912918295577E-02  1.174434370337466E-03
-6.044624323483E+00  2.779776810821928E-02  1.278068064953308E-03
-6.004624323483E+00  2.867912141615793E-02  1.399334722129225E-03
-5.964624323483E+00  2.964569656764977E-02  1.542860013994987E-03
-5.924624323483E+00  3.071328164353659E-02  1.714943628206266E-03
-5.884624323483E+00  3.190211581740993E-02  1.924349267640833E-03
-5.844624323483E+00  3.323859357071758E-02  2.183566068477986E-03
-5.804624323483E+00  3.475780079513662E-02  2.510890775221756E-03
-5.764624323483E+00  3.650737649534035E-02  2.933997959745392E-03
-5.724624323483E+00  3.855352972363225E-02  3.496336516099413E-03
-5.684624323483E+00  4.099060548037723E-02  4.269190454180479E-03
-5.644624323483E+00  4.395643985611680E-02  5.375821445576934E-03
-5.604624323483E+00  4.765641193265532E-02  7.043302781350308E-03
-5.564624323483E+00  5.239564629468434E-02  9.723156749643223E-03
-5.524624323483E+00  5.858558059360656E-02  1.439723389990947E-02
-5.484624323483E+00  6.646235037265992E-02  2.339795802355518E-02
-5.444624323483E+00  7.382899624476043E-02  4.223586546690819E-02
-5.404624323483E+00  6.541269767155128E-02  7.722257242066696E-02
-5.364624323483E+00  1.427337078200672E-02  9.472877445422334E-02
-5.324624323483E+00 -1.755491596200698E-02  5.979784990457199E-02
-5.284624323483E+00 -1.503347803908755E-02  3.231714704730666E-02
-5.244624323483E+00 -6.407953532516424E-03  1.910881439471623E-02
-5.204624323483E+00  1.177443518868238E-03  1.271556648267312E-02
-5.164624323483E+00  7.243329135449931E-03  9.347947242514563E-03
-5.124624323483E+00  1.220563723063064E-02  7.453391986065479E-03
-5.084624323483E+00  1.645134586588195E-02  6.358984004326447E-03
-5.044624323483E+00  2.026053755397323E-02  5.749399778504654E-03
-5.004624323483E+00  2.383667795221011E-02  5.470184190828124E-03
-4.964624323483E+00  2.733902556571037E-02  5.448964604009528E-03
-4.924624323483E+00  3.090705188389289E-02  5.663410518808972E-03
-4.884624323483E+00  3.468005567443561E-02  6.131300041614552E-03
-4.844624323483E+00  3.881633359828337E-02  6.915662869804208E-03
-4.804624323483E+00  4.351636771806412E-02  8.148022678366706E-03
-4.764624323483E+00  4.905458716634695E-02  1.008572419509804E-02
-4.724624323483E+00  5.582002764322425E-02  1.324965153163505E-02
-4.684624323483E+00  6.432872302902173E-02  1.877566194701603E-02
-4.644624323483E+00  7.491363330951921E-02  2.936052701167808E-02
-4.604624323483E+00  8.517201005683632E-02  5.142655510805638E-02
-4.564624323483E+00  7.743704486088976E-02  9.275169385913389E-02
-4.524624323483E+00  1.841456599361918E-02  1.120918558857842E-01
-4.484624323483E+00 -1.097176133715482E-02  7.230746545920938E-02
-4.444624323483E+00 -4.930572044574444E-03  4.613879139190331E-02
-4.404624323483E+00  6.553636344068651E-03  3.364537513217169E-02
-4.364624323483E+00  2.043211676456257E-02  2.955297852309490E-02
-4.324624323483E+00  3.511951003376893E-02  3.361385846202934E-02
-4.284624323483E+00  4.885315093954334E-02  4.909057716171759E-02
-4.244624323483E+00  4.885019914768914E-02  8.296587602872300E-02
-4.204624323483E+00  1.504434651497866E-03  1.078737067755949E-01
-4.164624323483E+00 -3.191541274942553E-02  7.185760228285651E-02
-4.124624323483E+00 -2.581607355622348E-02  4.314679292803184E-02
-4.084624323483E+00 -1.211378686130834E-02  3.175878090428821E-02
-4.044624323483E+00  1.058412101934352E-04  3.139437818961656E-02
-4.004624323483E+00  4.974099304978815E-03  3.892887002424963E-02
-3.964624323483E+00 -1.520609233523450E-03  4.078079115170586E-02
-3.924624323483E+00  5.488900868422524E-04  3.498825122042563E-02
-3.884624323483E+00  5.384586325144252E-03  3.907894366256406E-02
-3.844624323483E+00 -4.100550369865265E-03  4.426047352030597E-02
-3.804624323483E+00 -9.908444434700726E-03  3.150140631019230E-02
-3.764624323483E+00 -3.045789802549118E-03  2.174271080303295E-02
-3.724624323483E+00  6.511075699952388E-03  1.802989553341458E-02
-3.684624323483E+00  1.653560169833809E-02  1.797865923214358E-02
