#Spectra: 1
Emin______Emax      -1.563755655984755E+01  2.436244344015245E+01
EminPole__EmaxPole  -5.473907976701319E+00  1.786411144434128E+01
dE________Gamma      4.000000000000000E-02  1.000000000000000E-01
Energy               Re[0]                  Im[0]                
-1.563755655985E+01  2.675112853591319E-03  7.474471969914986E-05
-1.559755655985E+01  3.032988127437662E-03  7.664920423735343E-05
-1.555755655985E+01  3.342996444389269E-03  7.837114046648936E-05
-1.551755655985E+01  3.596904972692454E-03  7.987689758551045E-05
-1.547755655985E+01  3.800401618093400E-03  8.118866473394890E-05
-1.543755655985E+01  3.963619217832627E-03  8.234656585225129E-05
-1.539755655985E+01  4.096160934061654E-03  8.338873223230567E-05
-1.535755655985E+01  4.205658781028512E-03  8.434550405647945E-05
-1.531755655985E+01  4.297799806447541E-03  8.523950946556514E-05
-1.527755655985E+01  4.376735661972475E-03  8.608728435286620E-05
-1.523755655985E+01  4.445494296864722E-03  8.690090613497788E-05
-1.519755655985E+01  4.506301965229168E-03  8.768927265270939E-05
-1.515755655985E+01  4.560815277916338E-03  8.845902392771716E-05
-1.511755655985E+01  4.610283711304345E-03  8.921518759035637E-05
-1.507755655985E+01  4.655662695370984E-03  8.996162790190801E-05
-1.503755655985E+01  4.697692631303325E-03  9.070135938864186E-05
-1.499755655985E+01  4.736954607291539E-03  9.143676790145744E-05
-1.495755655985E+01  4.773910135620682E-03  9.216976821462018E-05
-1.491755655985E+01  4.808929846057499E-03  9.290191777947796E-05
-1.487755655985E+01  4.842314466092063E-03  9.363449986831639E-05
-1.483755655985E+01  4.874310351196897E-03  9.436858509915447E-05
-1.479755655985E+01  4.905121117751002E-03  9.510507750760934E-05
-1.475755655985E+01  4.934916455505423E-03  9.584474944100998E-05
-1.471755655985E+01  4.963838875072538E-03  9.658826827291055E-05
-1.467755655985E+01  4.992008926582263E-03  9.733621706490500E-05
-1.463755655985E+01  5.019529274318783E-03  9.808911070173253E-05
-1.459755655985E+01  5.046487906583003E-03  9.884740860659546E-05
-1.455755655985E+01  5.072960685567010E-03  9.961152484814850E-05
-1.451755655985E+01  5.099013388944290E-03  1.003818362400449E-04
-1.447755655985E+01  5.124703356640928E-03  1.011586888822937E-04
-1.443755655985E+01  5.150080828432289E-03  1.019424034834021E-04
-1.439755655985E+01  5.175190037572695E-03  1.027332797212956E-04
-1.435755655985E+01  5.200070110516779E-03  1.035315998410003E-04
-1.431755655985E+01  5.224755811462151E-03  1.043376316422169E-04
-1.427755655985E+01  5.249278161901609E-03  1.051516309761086E-04
-1.423755655985E+01  5.273664958881109E-03  1.059738438449362E-04
-1.419755655985E+01  5.297941210688945E-03  1.068045081785199E-04
-1.415755655985E+01  5.322129504867667E-03  1.076438553463467E-04
-1.411755655985E+01  5.346250320463257E-03  1.084921114523807E-04
-1.407755655985E+01  5.370322294099064E-03  1.093494984504406E-04
-1.403755655985E+01  5.394362447632219E-03  1.102162351107884E-04
-1.399755655985E+01  5.418386383702087E-03  1.110925378628509E-04
-1.395755655985E+01  5.442408454328701E-03  1.119786215344645E-04
-1.391755655985E+01  5.466441906797367E-03  1.128747000043913E-04
-1.387755655985E+01  5.490499010324923E-03  1.137809867819403E-04
-1.383755655985E+01  5.514591166404043E-03  1.146976955251695E-04
-1.379755655985E+01  5.538729005236132E-03  1.156250405072334E-04
-1.375755655985E+01  5.562922470266686E-03  1.165632370388797E-04
-1.371755655985E+01  5.587180892512216E-03  1.175125018538250E-04
-1.367755655985E+01  5.611513056100506E-03  1.184730534626933E-04
-1.363755655985E+01  5.635927256225610E-03  1.194451124803326E-04
-1.359755655985E+01  5.660431350535720E-03  1.204289019306128E-04
-1.355755655985E+01  5.685032804819765E-03  1.214246475322142E-04
-1.351755655985E+01  5.709738733731875E-03  1.224325779684164E-04
-1.347755655985E+01  5.734555937185603E-03  1.234529251434905E-04
-1.343755655985E+01  5.759490932960776E-03  1.244859244279424E-04
-1.339755655985E+01  5.784549985990026E-03  1.255318148945715E-04
-1.335755655985E+01  5.809739134728065E-03  1.265908395470592E-04
-1.331755655985E+01  5.835064214952597E-03  1.276632455425923E-04
-1.327755655985E+01  5.860530881299661E-03  1.287492844098607E-04
-1.323755655985E+01  5.886144626796506E-03  1.298492122636072E-04
-1.319755655985E+01  5.911910800621926E-03  1.309632900167952E-04
-1.315755655985E+01  5.937834624294203E-03  1.320917835913446E-04
-1.311755655985E+01  5.963921206463022E-03  1.332349641282984E-04
-1.307755655985E+01  5.990175556459318E-03  1.343931081982081E-04
-1.303755655985E+01  6.016602596738975E-03  1.355664980124626E-04
-1.299755655985E+01  6.043207174340415E-03  1.367554216362230E-04
-1.295755655985E+01  6.069994071461565E-03  1.379601732035916E-04
-1.291755655985E+01  6.096968015250322E-03  1.391810531355970E-04
-1.287755655985E+01  6.124133686891602E-03  1.404183683615481E-04
-1.283755655985E+01  6.151495730065057E-03  1.416724325442851E-04
-1.279755655985E+01  6.179058758839381E-03  1.429435663098342E-04
-1.275755655985E+01  6.206827365062288E-03  1.442320974819563E-04
-1.271755655985E+01  6.234806125298724E-03  1.455383613220662E-04
-1.267755655985E+01  6.262999607364847E-03  1.468627007749950E-04
-1.263755655985E+01  6.291412376500085E-03  1.482054667210555E-04
-1.259755655985E+01  6.320049001215732E-03  1.495670182348736E-04
-1.255755655985E+01  6.348914058854625E-03  1.509477228514487E-04
-1.251755655985E+01  6.378012140893226E-03  1.523479568398999E-04
-1.247755655985E+01  6.407347858014393E-03  1.537681054853756E-04
-1.243755655985E+01  6.436925844976757E-03  1.552085633795919E-04
-1.239755655985E+01  6.466750765304297E-03  1.566697347204898E-04
-1.235755655985E+01  6.496827315817328E-03  1.581520336215046E-04
-1.231755655985E+01  6.527160231025011E-03  1.596558844309523E-04
-1.227755655985E+01  6.557754287397118E-03  1.611817220620582E-04
-1.223755655985E+01  6.588614307532073E-03  1.627299923341645E-04
-1.219755655985E+01  6.619745164236362E-03  1.643011523256726E-04
-1.215755655985E+01  6.651151784530076E-03  1.658956707392988E-04
-1.211755655985E+01  6.682839153591514E-03  1.675140282802436E-04
-1.207755655985E+01  6.714812318653551E-03  1.691567180478863E-04
-1.203755655985E+01  6.747076392863478E-03  1.708242459416735E-04
-1.199755655985E+01  6.779636559117152E-03  1.725171310818522E-04
-1.195755655985E+01  6.812498073878107E-03  1.742359062457754E-04
-1.191755655985E+01  6.845666270991366E-03  1.759811183205019E-04
-1.187755655985E+01  6.879146565501447E-03  1.777533287724711E-04
-1.183755655985E+01  6.912944457483669E-03  1.795531141350563E-04
-1.179755655985E+01  6.947065535897363E-03  1.813810665148433E-04
-1.175755655985E+01  6.981515482469568E-03  1.832377941175222E-04
-1.171755655985E+01  7.016300075617228E-03  1.851239217943284E-04
-1.167755655985E+01  7.051425194416110E-03  1.870400916100061E-04
-1.163755655985E+01  7.086896822624083E-03  1.889869634333240E-04
-1.159755655985E+01  7.122721052766641E-03  1.909652155512306E-04
-1.155755655985E+01  7.158904090292306E-03  1.929755453077797E-04
-1.151755655985E+01  7.195452257805510E-03  1.950186697690293E-04
-1.147755655985E+01  7.232371999384590E-03  1.970953264151757E-04
-1.143755655985E+01  7.269669884992471E-03  1.992062738612497E-04
-1.139755655985E+01  7.307352614987887E-03  2.013522926077855E-04
-1.135755655985E+01  7.345427024744734E-03  2.035341858229283E-04
-1.131755655985E+01  7.383900089387537E-03  2.057527801575563E-04
-1.127755655985E+01  7.422778928651005E-03  2.080089265950565E-04
-1.123755655985E+01  7.462070811872004E-03  2.103035013374987E-04
-1.119755655985E+01  7.501783163122029E-03  2.126374067300456E-04
-1.115755655985E+01  7.541923566489142E-03  2.150115722255488E-04
-1.111755655985E+01  7.582499771518071E-03  2.174269553913842E-04
-1.107755655985E+01  7.623519698817542E-03  2.198845429607061E-04
-1.103755655985E+01  7.664991445844400E-03  2.223853519304254E-04
-1.099755655985E+01  7.706923292874395E-03  2.249304307083523E-04
-1.095755655985E+01  7.749323709169554E-03  2.275208603120922E-04
-1.091755655985E+01  7.792201359353069E-03  2.301577556224351E-04
-1.087755655985E+01  7.835565110002289E-03  2.328422666941485E-04
-1.083755655985E+01  7.879424036471806E-03  2.355755801272594E-04
-1.079755655985E+01  7.923787429958066E-03  2.383589205021012E-04
-1.075755655985E+01  7.968664804818686E-03  2.411935518816021E-04
-1.071755655985E+01  8.014065906159036E-03  2.440807793845179E-04
-1.067755655985E+01  8.060000717700300E-03  2.470219508335299E-04
-1.063755655985E+01  8.106479469943237E-03  2.500184584823913E-04
-1.059755655985E+01  8.153512648642957E-03  2.530717408265749E-04
-1.055755655985E+01  8.201111003610519E-03  2.561832845021387E-04
-1.051755655985E+01  8.249285557858473E-03  2.593546262778715E-04
-1.047755655985E+01  8.298047617107609E-03  2.625873551460767E-04
-1.043755655985E+01  8.347408779674105E-03  2.658831145177297E-04
-1.039755655985E+01  8.397380946756072E-03  2.692436045281178E-04
-1.035755655985E+01  8.447976333141040E-03  2.726705844594860E-04
-1.031755655985E+01  8.499207478355765E-03  2.761658752876502E-04
-1.027755655985E+01  8.551087258281692E-03  2.797313623600261E-04
-1.023755655985E+01  8.603628897260860E-03  2.833689982130223E-04
-1.019755655985E+01  8.656845980717871E-03  2.870808055373180E-04
-1.015755655985E+01  8.710752468325662E-03  2.908688803001213E-04
-1.011755655985E+01  8.765362707744237E-03  2.947353950341734E-04
-1.007755655985E+01  8.820691448963100E-03  2.986826023039485E-04
-1.003755655985E+01  8.876753859280421E-03  3.027128383602513E-04
-9.997556559848E+00  8.933565538953732E-03  3.068285269952477E-04
-9.957556559848E+00  8.991142537559099E-03  3.110321836108251E-04
-9.917556559848E+00  9.049501371098110E-03  3.153264195141542E-04
-9.877556559848E+00  9.108659039894692E-03  3.197139464553611E-04
-9.837556559848E+00  9.168633047326308E-03  3.241975814233385E-04
-9.797556559848E+00  9.229441419436697E-03  3.287802517169504E-04
-9.757556559848E+00  9.291102725481247E-03  3.334650003102291E-04
-9.717556559848E+00  9.353636099458563E-03  3.382549915315829E-04
-9.677556559848E+00  9.417061262685888E-03  3.431535170786430E-04
-9.637556559848E+00  9.481398547480048E-03  3.481640023920607E-04
-9.597556559848E+00  9.546668922009170E-03  3.532900134134633E-04
-9.557556559848E+00  9.612894016385851E-03  3.585352637547958E-04
-9.517556559848E+00  9.680096150076666E-03  3.639036223085290E-04
-9.477556559848E+00  9.748298360708396E-03  3.693991213306331E-04
-9.437556559848E+00  9.817524434357164E-03  3.750259650308879E-04
-9.397556559848E+00  9.887798937413145E-03  3.807885387080209E-04
-9.357556559848E+00  9.959147250119257E-03  3.866914184703754E-04
-9.317556559848E+00  1.003159560189101E-02  3.927393815862960E-04
-9.277556559848E+00  1.010517110853120E-02  3.989374175123077E-04
-9.237556559848E+00  1.017990181146250E-02  4.052907396513726E-04
-9.197556559848E+00  1.025581671911033E-02  4.118047978981987E-04
-9.157556559848E+00  1.033294585057807E-02  4.184852920336922E-04
-9.117556559848E+00  1.041132028176815E-02  4.253381860363219E-04
-9.077556559848E+00  1.049097219411434E-02  4.323697233844174E-04
-9.037556559848E+00  1.057193492610420E-02  4.395864434303195E-04
-8.997556559848E+00  1.065424302778367E-02  4.469951989349685E-04
-8.957556559848E+00  1.073793231845352E-02  4.546031748599593E-04
-8.917556559848E+00  1.082303994778205E-02  4.624179085234987E-04
-8.877556559848E+00  1.090960446057953E-02  4.704473112371065E-04
-8.837556559848E+00  1.099766586549837E-02  4.786996915515123E-04
-8.797556559848E+00  1.108726570794711E-02  4.871837802530540E-04
-8.757556559848E+00  1.117844714752964E-02  4.959087572662991E-04
-8.717556559848E+00  1.127125504034955E-02  5.048842806345911E-04
-8.677556559848E+00  1.136573602654852E-02  5.141205177681903E-04
-8.637556559848E+00  1.146193862348058E-02  5.236281791696528E-04
-8.597556559848E+00  1.155991332496088E-02  5.334185548686204E-04
-8.557556559848E+00  1.165971270706739E-02  5.435035538233036E-04
-8.517556559848E+00  1.176139154101788E-02  5.538957465743372E-04
-8.477556559848E+00  1.186500691369446E-02  5.646084114684495E-04
-8.437556559848E+00  1.197061835644088E-02  5.756555848053878E-04
-8.397556559848E+00  1.207828798281962E-02  5.870521153019788E-04
-8.357556559848E+00  1.218808063608122E-02  5.988137233131421E-04
-8.317556559848E+00  1.230006404717342E-02  6.109570653014524E-04
-8.277556559848E+00  1.241430900420078E-02  6.234998041058798E-04
-8.237556559848E+00  1.253088953433671E-02  6.364606856271658E-04
-8.197556559848E+00  1.264988309929422E-02  6.498596226235280E-04
-8.157556559848E+00  1.277137080557626E-02  6.637177863973541E-04
-8.117556559848E+00  1.289543763085564E-02  6.780577072528333E-04
-8.077556559848E+00  1.302217266797965E-02  6.929033847182815E-04
-8.037556559848E+00  1.315166938825688E-02  7.082804086573938E-04
-7.997556559848E+00  1.328402592586661E-02  7.242160925437597E-04
-7.957556559848E+00  1.341934538543705E-02  7.407396203458652E-04
-7.917556559848E+00  1.355773617507155E-02  7.578822086694051E-04
-7.877556559848E+00  1.369931236736390E-02  7.756772860348361E-04
-7.837556559848E+00  1.384419409124151E-02  7.941606914359888E-04
-7.797556559848E+00  1.399250795781239E-02  8.133708946372088E-04
-7.757556559848E+00  1.414438752377375E-02  8.333492410295390E-04
-7.717556559848E+00  1.429997379637631E-02  8.541402242908398E-04
-7.677556559848E+00  1.445941578443355E-02  8.757917905916819E-04
-7.637556559848E+00  1.462287110043157E-02  8.983556786727410E-04
-7.597556559848E+00  1.479050661944206E-02  9.218878008069961E-04
-7.557556559848E+00  1.496249920128233E-02  9.464486704722058E-04
-7.517556559848E+00  1.513903648321618E-02  9.721038835213067E-04
-7.477556559848E+00  1.532031775146646E-02  9.989246607814851E-04
-7.437556559848E+00  1.550655490093506E-02  1.026988461375257E-03
-7.397556559848E+00  1.569797349382243E-02  1.056379677686111E-03
-7.357556559848E+00  1.589481392933591E-02  1.087190424845844E-03
-7.317556559848E+00  1.609733273840828E-02  1.119521439973656E-03
-7.277556559848E+00  1.630580401935364E-02  1.153483109239801E-03
-7.237556559848E+00  1.652052103271330E-02  1.189196644273236E-03
-7.197556559848E+00  1.674179797624529E-02  1.226795433628002E-03
-7.157556559848E+00  1.696997196414929E-02  1.266426600149177E-03
-7.117556559848E+00  1.720540523826692E-02  1.308252801368493E-03
-7.077556559848E+00  1.744848764324201E-02  1.352454317808220E-03
-7.037556559848E+00  1.769963940255865E-02  1.399231483659887E-03
-6.997556559848E+00  1.795931423810835E-02  1.448807526222199E-03
-6.957556559848E+00  1.822800288258287E-02  1.501431895364715E-03
-6.917556559848E+00  1.850623704167774E-02  1.557384182958242E-03
-6.877556559848E+00  1.879459387193429E-02  1.616978755762101E-03
-6.837556559848E+00  1.909370105016443E-02  1.680570255108702E-03
-6.797556559848E+00  1.940424252184459E-02  1.748560154764968E-03
-6.757556559848E+00  1.972696502862446E-02  1.821404617091736E-03
-6.717556559848E+00  2.006268552899329E-02  1.899623950432633E-03
-6.677556559848E+00  2.041229964073541E-02  1.983814052077795E-03
-6.637556559848E+00  2.077679124817726E-02  2.074660327310099E-03
-6.597556559848E+00  2.115724342967654E-02  2.172954714328237E-03
-6.557556559848E+00  2.155485086834068E-02  2.279616628736115E-03
-6.517556559848E+00  2.197093390643409E-02  2.395718885624152E-03
-6.477556559848E+00  2.240695438264886E-02  2.522519983990615E-03
-6.437556559848E+00  2.286453333682860E-02  2.661504577918613E-03
-6.397556559848E+00  2.334547055461074E-02  2.814434554254775E-03
-6.357556559848E+00  2.385176571444366E-02  2.983413947389415E-03
-6.317556559848E+00  2.438564052424608E-02  3.170972032028189E-03
-6.277556559848E+00  2.494956058195224E-02  3.380170461857210E-03
-6.237556559848E+00  2.554625457374607E-02  3.614742428314516E-03
-6.197556559848E+00  2.617872651490251E-02  3.879274720785776E-03
-6.157556559848E+00  2.685025349355157E-02  4.179447569131654E-03
-6.117556559848E+00  2.756435585807222E-02  4.522352600179288E-03
-6.077556559848E+00  2.832471737259543E-02  4.916916517218011E-03
-6.037556559848E+00  2.913501674162925E-02  5.374467430484337E-03
-5.997556559848E+00  2.999860420263133E-02  5.909491680741607E-03
-5.957556559848E+00  3.091790922195350E-02  6.540639113315632E-03
-5.917556559848E+00  3.189338358049850E-02  7.292036586356873E-03
-5.877556559848E+00  3.292164563916893E-02  8.194943008211376E-03
-5.837556559848E+00  3.399226397580046E-02  9.289674884543542E-03
-5.797556559848E+00  3.508226968938601E-02  1.062743377276270E-02
-5.757556559848E+00  3.614703707949127E-02  1.227092495349910E-02
-5.717556559848E+00  3.710588279600956E-02  1.429098485407776E-02
-5.677556559848E+00  3.782163714619875E-02  1.675313202412251E-02
-5.637556559848E+00  3.807846220576890E-02  1.968293862557305E-02
-5.597556559848E+00  3.757694603251691E-02  2.299659374499402E-02
-5.557556559848E+00  3.599226195475910E-02  2.639982490568049E-02
-5.517556559848E+00  3.315117038406697E-02  2.932285113935207E-02
-5.477556559848E+00  2.928988285248433E-02  3.104502582512178E-02
-5.437556559848E+00  2.514528090581113E-02  3.107952877684226E-02
-5.397556559848E+00  2.163747486164767E-02  2.952942449951490E-02
-5.357556559848E+00  1.936901862766714E-02  2.701136349922635E-02
-5.317556559848E+00  1.843090789196385E-02  2.424173330945493E-02
-5.277556559848E+00  1.858000728200896E-02  2.172081741370019E-02
-5.237556559848E+00  1.948950974518152E-02  1.968334434456453E-02
-5.197556559848E+00  2.088662044295896E-02  1.818822987483421E-02
-5.157556559848E+00  2.258472794594116E-02  1.721419098480442E-02
-5.117556559848E+00  2.446901739269211E-02  1.671894472875747E-02
-5.077556559848E+00  2.647239467126883E-02  1.666774491414971E-02
-5.037556559848E+00  2.855446175397454E-02  1.704509603677157E-02
-4.997556559848E+00  3.068485855427784E-02  1.785906650671256E-02
-4.957556559848E+00  3.282856064880531E-02  1.914262082833524E-02
-4.917556559848E+00  3.492982578520273E-02  2.095271701844187E-02
-4.877556559848E+00  3.689155545957679E-02  2.336449284223893E-02
-4.837556559848E+00  3.854850858336050E-02  2.645317898726426E-02
-4.797556559848E+00  3.963964464468946E-02  3.025005188955596E-02
-4.757556559848E+00  3.980381881279655E-02  3.465627300425232E-02
-4.717556559848E+00  3.865582288866936E-02  3.932156133115536E-02
-4.677556559848E+00  3.600676074722785E-02  4.357759244481590E-02
-4.637556559848E+00  3.216472126317808E-02  4.661623369502998E-02
-4.597556559848E+00  2.799838905230592E-02  4.797137395697357E-02
-4.557556559848E+00  2.450314155435394E-02  4.790964202360797E-02
-4.517556559848E+00  2.219608775029510E-02  4.726631300719621E-02
-4.477556559848E+00  2.090888273793652E-02  4.690785282032633E-02
-4.437556559848E+00  2.001173626155282E-02  4.731728376318216E-02
-4.397556559848E+00  1.875814005253254E-02  4.844949263007720E-02
-4.357556559848E+00  1.662006832160518E-02  4.976655923751092E-02
-4.317556559848E+00  1.359588356220283E-02  5.047631668987310E-02
-4.277556559848E+00  1.028954558185212E-02  5.001136413002037E-02
-4.237556559848E+00  7.531121479466402E-03  4.843501309480568E-02
-4.197556559848E+00  5.804971410117073E-03  4.634015898817696E-02
-4.157556559848E+00  5.045824595116185E-03  4.436764884397430E-02
-4.117556559848E+00  4.876493791658679E-03  4.284975017072517E-02
-4.077556559848E+00  4.933456513387596E-03  4.178844739401103E-02
-4.037556559848E+00  5.029033702834551E-03  4.102304442810696E-02
-3.997556559848E+00  5.151730280038353E-03  4.038399106480284E-02
-3.957556559848E+00  5.422263827602713E-03  3.977830870028916E-02
-3.917556559848E+00  6.025813110441690E-03  3.926991906949272E-02
-3.877556559848E+00  7.071576170068056E-03  3.911384641065185E-02
-3.837556559848E+00  8.459519313948310E-03  3.965883136930926E-02
-3.797556559848E+00  9.858385876075910E-03  4.119281954817915E-02
-3.757556559848E+00  1.075766614927562E-02  4.383024993859209E-02
