#Spectra: 1
Emin______Emax      -1.556462432348329E+01  2.443537567651671E+01
EminPole__EmaxPole  -5.383930493629812E+00  1.849368854576105E+01
dE________Gamma      4.000000000000000E-02  1.000000000000000E-01
Energy               Re[0]                  Im[0]                
-1.556462432348E+01  2.657264126407284E-03  7.377109350222295E-05
-1.552462432348E+01  3.012752334556896E-03  7.564797361806343E-05
-1.548462432348E+01  3.320676845731693E-03  7.734456065077426E-05
-1.544462432348E+01  3.572859290944751E-03  7.882766501711712E-05
-1.540462432348E+01  3.774951684693058E-03  8.011919526934881E-05
-1.536462432348E+01  3.937021956515968E-03  8.125876162704515E-05
-1.532462432348E+01  4.068611603245532E-03  8.228400599047072E-05
-1.528462432348E+01  4.177303600051746E-03  8.322487865913124E-05
-1.524462432348E+01  4.268748450876038E-03  8.410371665901072E-05
-1.520462432348E+01  4.347071134397807E-03  8.493684283576741E-05
-1.516462432348E+01  4.415280151204767E-03  8.573617868436455E-05
-1.512462432348E+01  4.475587459507486E-03  8.651050684583701E-05
-1.508462432348E+01  4.529639034040140E-03  8.726638103921574E-05
-1.504462432348E+01  4.578676329425753E-03  8.800876321035614E-05
-1.500462432348E+01  4.623648640956650E-03  8.874146679567541E-05
-1.496462432348E+01  4.665291614207208E-03  8.946746633505263E-05
-1.492462432348E+01  4.704182602781112E-03  9.018911569801036E-05
-1.488462432348E+01  4.740780150151830E-03  9.090830366295272E-05
-1.484462432348E+01  4.775452498821502E-03  9.162656621357037E-05
-1.480462432348E+01  4.808498435920761E-03  9.234516861773349E-05
-1.476462432348E+01  4.840162723848767E-03  9.306516616432101E-05
-1.472462432348E+01  4.870647658613485E-03  9.378744964503518E-05
-1.468462432348E+01  4.900121825823272E-03  9.451277980156142E-05
-1.464462432348E+01  4.928726804955732E-03  9.524181369779311E-05
-1.460462432348E+01  4.956582354601337E-03  9.597512511677007E-05
-1.456462432348E+01  4.983790461023680E-03  9.671322048876880E-05
-1.452462432348E+01  5.010438527488187E-03  9.745655144329401E-05
-1.448462432348E+01  5.036601907831131E-03  9.820552478604048E-05
-1.444462432348E+01  5.062345934999189E-03  9.896051049401865E-05
-1.440462432348E+01  5.087727557297061E-03  9.972184817235306E-05
-1.436462432348E+01  5.112796667438450E-03  1.004898523073903E-04
-1.432462432348E+01  5.137597189189989E-03  1.012648165708084E-04
-1.428462432348E+01  5.162167971346043E-03  1.020470173701837E-04
-1.424462432348E+01  5.186543527516112E-03  1.028367167971850E-04
-1.420462432348E+01  5.210754651719616E-03  1.036341650911935E-04
-1.416462432348E+01  5.234828933332771E-03  1.044396027107835E-04
-1.412462432348E+01  5.258791189993211E-03  1.052532620860996E-04
-1.408462432348E+01  5.282663833258485E-03  1.060753691101958E-04
-1.404462432348E+01  5.306467178857077E-03  1.069061444157932E-04
-1.400462432348E+01  5.330219711057910E-03  1.077458044748368E-04
-1.396462432348E+01  5.353938308866657E-03  1.085945625510988E-04
-1.392462432348E+01  5.377638440318026E-03  1.094526295304389E-04
-1.388462432348E+01  5.401334329989215E-03  1.103202146488421E-04
-1.384462432348E+01  5.425039103943392E-03  1.111975261347704E-04
-1.380462432348E+01  5.448764915576666E-03  1.120847717794861E-04
-1.376462432348E+01  5.472523055246319E-03  1.129821594466705E-04
-1.372462432348E+01  5.496324046075548E-03  1.138898975307814E-04
-1.368462432348E+01  5.520177727935600E-03  1.148081953720462E-04
-1.364462432348E+01  5.544093331283775E-03  1.157372636347374E-04
-1.360462432348E+01  5.568079542270088E-03  1.166773146543332E-04
-1.356462432348E+01  5.592144560306019E-03  1.176285627583188E-04
-1.352462432348E+01  5.616296149107241E-03  1.185912245646780E-04
-1.348462432348E+01  5.640541682070765E-03  1.195655192615307E-04
-1.344462432348E+01  5.664888182720425E-03  1.205516688708929E-04
-1.340462432348E+01  5.689342360849313E-03  1.215498984991189E-04
-1.336462432348E+01  5.713910644897785E-03  1.225604365762470E-04
-1.332462432348E+01  5.738599211031671E-03  1.235835150861818E-04
-1.328462432348E+01  5.763414009320929E-03  1.246193697894011E-04
-1.324462432348E+01  5.788360787365461E-03  1.256682404396747E-04
-1.320462432348E+01  5.813445111668868E-03  1.267303709961084E-04
-1.316462432348E+01  5.838672387021724E-03  1.278060098316745E-04
-1.312462432348E+01  5.864047874122503E-03  1.288954099392761E-04
-1.308462432348E+01  5.889576705635508E-03  1.299988291362803E-04
-1.304462432348E+01  5.915263900860444E-03  1.311165302683657E-04
-1.300462432348E+01  5.941114379166966E-03  1.322487814134586E-04
-1.296462432348E+01  5.967132972329335E-03  1.333958560864676E-04
-1.292462432348E+01  5.993324435879845E-03  1.345580334454666E-04
-1.288462432348E+01  6.019693459586578E-03  1.357355984999391E-04
-1.284462432348E+01  6.046244677148427E-03  1.369288423216549E-04
-1.280462432348E+01  6.072982675190026E-03  1.381380622587174E-04
-1.276462432348E+01  6.099912001630376E-03  1.393635621532976E-04
-1.272462432348E+01  6.127037173490445E-03  1.406056525635470E-04
-1.268462432348E+01  6.154362684198353E-03  1.418646509901683E-04
-1.264462432348E+01  6.181893010444594E-03  1.431408821081085E-04
-1.260462432348E+01  6.209632618634194E-03  1.444346780038284E-04
-1.256462432348E+01  6.237585970978000E-03  1.457463784186000E-04
-1.252462432348E+01  6.265757531261225E-03  1.470763309982797E-04
-1.248462432348E+01  6.294151770323448E-03  1.484248915500011E-04
-1.244462432348E+01  6.322773171281240E-03  1.497924243062401E-04
-1.240462432348E+01  6.351626234521447E-03  1.511793021966975E-04
-1.236462432348E+01  6.380715482490853E-03  1.525859071284683E-04
-1.232462432348E+01  6.410045464305431E-03  1.540126302749570E-04
-1.228462432348E+01  6.439620760200568E-03  1.554598723740184E-04
-1.224462432348E+01  6.469445985841775E-03  1.569280440358155E-04
-1.220462432348E+01  6.499525796513722E-03  1.584175660608951E-04
-1.216462432348E+01  6.529864891204309E-03  1.599288697690037E-04
-1.212462432348E+01  6.560468016598895E-03  1.614623973391738E-04
-1.208462432348E+01  6.591339970998864E-03  1.630186021616436E-04
-1.204462432348E+01  6.622485608177796E-03  1.645979492021822E-04
-1.200462432348E+01  6.653909841187492E-03  1.662009153794186E-04
-1.196462432348E+01  6.685617646125407E-03  1.678279899558036E-04
-1.192462432348E+01  6.717614065874335E-03  1.694796749428457E-04
-1.188462432348E+01  6.749904213824712E-03  1.711564855213140E-04
-1.184462432348E+01  6.782493277589087E-03  1.728589504770988E-04
-1.180462432348E+01  6.815386522718281E-03  1.745876126534920E-04
-1.176462432348E+01  6.848589296427929E-03  1.763430294206475E-04
-1.172462432348E+01  6.882107031344068E-03  1.781257731630443E-04
-1.168462432348E+01  6.915945249276038E-03  1.799364317858066E-04
-1.164462432348E+01  6.950109565024681E-03  1.817756092407715E-04
-1.160462432348E+01  6.984605690233618E-03  1.836439260732507E-04
-1.156462432348E+01  7.019439437291482E-03  1.855420199904710E-04
-1.152462432348E+01  7.054616723292346E-03  1.874705464527389E-04
-1.148462432348E+01  7.090143574062209E-03  1.894301792884138E-04
-1.144462432348E+01  7.126026128258549E-03  1.914216113338555E-04
-1.140462432348E+01  7.162270641550673E-03  1.934455550995424E-04
-1.136462432348E+01  7.198883490888206E-03  1.955027434636556E-04
-1.132462432348E+01  7.235871178865019E-03  1.975939303944623E-04
-1.128462432348E+01  7.273240338186465E-03  1.997198917029290E-04
-1.124462432348E+01  7.310997736247168E-03  2.018814258270603E-04
-1.120462432348E+01  7.349150279827549E-03  2.040793546495488E-04
-1.116462432348E+01  7.387705019916676E-03  2.063145243504093E-04
-1.112462432348E+01  7.426669156669791E-03  2.085878062963623E-04
-1.108462432348E+01  7.466050044508604E-03  2.109000979688395E-04
-1.104462432348E+01  7.505855197373274E-03  2.132523239325850E-04
-1.100462432348E+01  7.546092294134455E-03  2.156454368469451E-04
-1.096462432348E+01  7.586769184174916E-03  2.180804185220595E-04
-1.092462432348E+01  7.627893893150049E-03  2.205582810223019E-04
-1.088462432348E+01  7.669474628936901E-03  2.230800678194509E-04
-1.084462432348E+01  7.711519787782332E-03  2.256468549982263E-04
-1.080462432348E+01  7.754037960660455E-03  2.282597525169848E-04
-1.076462432348E+01  7.797037939850772E-03  2.309199055265369E-04
-1.072462432348E+01  7.840528725748369E-03  2.336284957502329E-04
-1.068462432348E+01  7.884519533918355E-03  2.363867429286550E-04
-1.064462432348E+01  7.929019802407171E-03  2.391959063324665E-04
-1.060462432348E+01  7.974039199323978E-03  2.420572863471936E-04
-1.056462432348E+01  8.019587630706116E-03  2.449722261339433E-04
-1.052462432348E+01  8.065675248683185E-03  2.479421133703391E-04
-1.048462432348E+01  8.112312459955164E-03  2.509683820762047E-04
-1.044462432348E+01  8.159509934600661E-03  2.540525145288453E-04
-1.040462432348E+01  8.207278615232351E-03  2.571960432730815E-04
-1.036462432348E+01  8.255629726517503E-03  2.604005532315312E-04
-1.032462432348E+01  8.304574785082671E-03  2.636676839210060E-04
-1.028462432348E+01  8.354125609822129E-03  2.669991317812880E-04
-1.024462432348E+01  8.404294332631589E-03  2.703966526229518E-04
-1.020462432348E+01  8.455093409589351E-03  2.738620642014050E-04
-1.016462432348E+01  8.506535632608080E-03  2.773972489247442E-04
-1.012462432348E+01  8.558634141582894E-03  2.810041567036206E-04
-1.008462432348E+01  8.611402437061452E-03  2.846848079518446E-04
-1.004462432348E+01  8.664854393464505E-03  2.884412967470770E-04
-1.000462432348E+01  8.719004272886533E-03  2.922757941616539E-04
-9.964624323483E+00  8.773866739507873E-03  2.961905517742781E-04
-9.924624323483E+00  8.829456874651661E-03  3.001879053741167E-04
-9.884624323483E+00  8.885790192521699E-03  3.042702788696853E-04
-9.844624323483E+00  8.942882656658310E-03  3.084401884158128E-04
-9.804624323483E+00  9.000750697152844E-03  3.127002467729813E-04
-9.764624323483E+00  9.059411228663486E-03  3.170531679144136E-04
-9.724624323483E+00  9.118881669277825E-03  3.215017718974501E-04
-9.684624323483E+00  9.179179960271001E-03  3.260489900170356E-04
-9.644624323483E+00  9.240324586810667E-03  3.306978702605177E-04
-9.604624323483E+00  9.302334599664846E-03  3.354515830844696E-04
-9.564624323483E+00  9.365229637970665E-03  3.403134275358862E-04
-9.524624323483E+00  9.429029953127744E-03  3.452868377419074E-04
-9.484624323483E+00  9.493756433883314E-03  3.503753897941467E-04
-9.444624323483E+00  9.559430632680955E-03  3.555828090558737E-04
-9.404624323483E+00  9.626074793350439E-03  3.609129779225951E-04
-9.364624323483E+00  9.693711880220999E-03  3.663699440691514E-04
-9.324624323483E+00  9.762365608746625E-03  3.719579292192270E-04
-9.284624323483E+00  9.832060477738746E-03  3.776813384762347E-04
-9.244624323483E+00  9.902821803307742E-03  3.835447702578832E-04
-9.204624323483E+00  9.974675754623161E-03  3.895530268804354E-04
-9.164624323483E+00  1.004764939161044E-02  3.957111258427007E-04
-9.124624323483E+00  1.012177070471063E-02  4.020243118642546E-04
-9.084624323483E+00  1.019706865683974E-02  4.084980697373068E-04
-9.044624323483E+00  1.027357322769445E-02  4.151381380570196E-04
-9.004624323483E+00  1.035131546056290E-02  4.219505239010642E-04
-8.964624323483E+00  1.043032751181153E-02  4.289415185357774E-04
-8.924624323483E+00  1.051064270323251E-02  4.361177142335981E-04
-8.884624323483E+00  1.059229557745178E-02  4.434860222945083E-04
-8.844624323483E+00  1.067532195661347E-02  4.510536923731620E-04
-8.804624323483E+00  1.075975900457487E-02  4.588283332233366E-04
-8.764624323483E+00  1.084564529286521E-02  4.668179349823335E-04
-8.724624323483E+00  1.093302087068370E-02  4.750308931302829E-04
-8.684624323483E+00  1.102192733923516E-02  4.834760342729474E-04
-8.644624323483E+00  1.111240793072788E-02  4.921626439118961E-04
-8.604624323483E+00  1.120450759238702E-02  5.011004963829448E-04
-8.564624323483E+00  1.129827307586786E-02  5.102998871628290E-04
-8.524624323483E+00  1.139375303248796E-02  5.197716677654148E-04
-8.484624323483E+00  1.149099811473611E-02  5.295272834726656E-04
-8.444624323483E+00  1.159006108455673E-02  5.395788141725260E-04
-8.404624323483E+00  1.169099692895705E-02  5.499390186060482E-04
-8.364624323483E+00  1.179386298353437E-02  5.606213823602310E-04
-8.324624323483E+00  1.189871906457887E-02  5.716401699814171E-04
-8.284624323483E+00  1.200562761047146E-02  5.830104816276176E-04
-8.244624323483E+00  1.211465383316606E-02  5.947483147272242E-04
-8.204624323483E+00  1.222586588062531E-02  6.068706311674224E-04
-8.164624323483E+00  1.233933501116604E-02  6.193954305989091E-04
-8.124624323483E+00  1.245513578076973E-02  6.323418305156498E-04
-8.084624323483E+00  1.257334624452119E-02  6.457301538505321E-04
-8.044624323483E+00  1.269404817346340E-02  6.595820249216952E-04
-8.004624323483E+00  1.281732728829247E-02  6.739204746716637E-04
-7.964624323483E+00  1.294327351147159E-02  6.887700562645979E-04
-7.924624323483E+00  1.307198123951664E-02  7.041569722484424E-04
-7.884624323483E+00  1.320354963740081E-02  7.201092146516748E-04
-7.844624323483E+00  1.333808295724720E-02  7.366567195722974E-04
-7.804624323483E+00  1.347569088372559E-02  7.538315380340520E-04
-7.764624323483E+00  1.361648890885292E-02  7.716680251367579E-04
-7.724624323483E+00  1.376059873921478E-02  7.902030498202699E-04
-7.684624323483E+00  1.390814873898790E-02  8.094762279023216E-04
-7.644624323483E+00  1.405927441255531E-02  8.295301814482912E-04
-7.604624323483E+00  1.421411893097451E-02  8.504108279965265E-04
-7.564624323483E+00  1.437283370709402E-02  8.721677037090809E-04
-7.524624323483E+00  1.453557902472439E-02  8.948543251605740E-04
-7.484624323483E+00  1.470252472796958E-02  9.185285952362563E-04
-7.444624323483E+00  1.487385097762658E-02  9.432532595078411E-04
-7.404624323483E+00  1.504974908248177E-02  9.690964205207481E-04
-7.364624323483E+00  1.523042241439279E-02  9.961321186944551E-04
-7.324624323483E+00  1.541608741726542E-02  1.024440990051953E-03
-7.284624323483E+00  1.560697472144462E-02  1.054111012808680E-03
-7.244624323483E+00  1.580333037666785E-02  1.085238357032735E-03
-7.204624323483E+00  1.600541721861553E-02  1.117928354219656E-03
-7.164624323483E+00  1.621351638627910E-02  1.152296606811470E-03
-7.124624323483E+00  1.642792900990610E-02  1.188470261562080E-03
-7.084624323483E+00  1.664897809222906E-02  1.226589475375451E-03
-7.044624323483E+00  1.687701060911261E-02  1.266809108029867E-03
-7.004624323483E+00  1.711239985974088E-02  1.309300683319307E-03
-6.964624323483E+00  1.735554810110278E-02  1.354254668934792E-03
-6.924624323483E+00  1.760688950692303E-02  1.401883136317049E-03
-6.884624323483E+00  1.786689349744151E-02  1.452422875307933E-03
-6.844624323483E+00  1.813606849368721E-02  1.506139055455010E-03
-6.804624323483E+00  1.841496615824720E-02  1.563329547251794E-03
-6.764624323483E+00  1.870418619411313E-02  1.624330043700315E-03
-6.724624323483E+00  1.900438178408139E-02  1.689520157046460E-03
-6.684624323483E+00  1.931626576541285E-02  1.759330709598746E-03
-6.644624323483E+00  1.964061764792330E-02  1.834252494185509E-03
-6.604624323483E+00  1.997829159806110E-02  1.914846853049166E-03
-6.564624323483E+00  2.033022552614167E-02  2.001758519246472E-03
-6.524624323483E+00  2.069745142742269E-02  2.095731289300279E-03
-6.484624323483E+00  2.108110713773626E-02  2.197627260024523E-03
-6.444624323483E+00  2.148244966681300E-02  2.308450580003597E-03
-6.404624323483E+00  2.190287026021938E-02  2.429376956351230E-03
-6.364624323483E+00  2.234391130220058E-02  2.561790546790791E-03
-6.324624323483E+00  2.280728508703546E-02  2.707330393040343E-03
-6.284624323483E+00  2.329489432305128E-02  2.867949266109661E-03
-6.244624323483E+00  2.380885393673347E-02  3.045988770552327E-03
-6.204624323483E+00  2.435151322334740E-02  3.244275895355122E-03
-6.164624323483E+00  2.492547649231933E-02  3.466248046542554E-03
-6.124624323483E+00  2.553361882219688E-02  3.716116146655386E-03
-6.084624323483E+00  2.617909093260847E-02  3.999078901531871E-03
-6.044624323483E+00  2.686530274843470E-02  4.321606149682556E-03
-6.004624323483E+00  2.759586768120335E-02  4.691815706083422E-03
-5.964624323483E+00  2.837447674615264E-02  5.119976611090944E-03
-5.924624323483E+00  2.920464948842817E-02  5.619182126313974E-03
-5.884624323483E+00  3.008927060000386E-02  6.206246848558010E-03
-5.844624323483E+00  3.102975563882474E-02  6.902889166669647E-03
-5.804624323483E+00  3.202457759363309E-02  7.737249535904368E-03
-5.764624323483E+00  3.306669955902532E-02  8.745732527026991E-03
-5.724624323483E+00  3.413916224176794E-02  9.974964694183781E-03
-5.684624323483E+00  3.520765464092476E-02  1.148314748967295E-02
-5.644624323483E+00  3.620847295215609E-02  1.333887809601312E-02
-5.604624323483E+00  3.703045552357708E-02  1.561297151824972E-02
-5.564624323483E+00  3.749223352524344E-02  1.835437871591650E-02
-5.524624323483E+00  3.732603627486817E-02  2.153659958384468E-02
-5.484624323483E+00  3.620185512571795E-02  2.496641801430704E-02
-5.444624323483E+00  3.385054092196907E-02  2.818851353629266E-02
-5.404624323483E+00  3.030696343335597E-02  3.050892811648372E-02
-5.364624323483E+00  2.611410445522308E-02  3.128019110179109E-02
-5.324624323483E+00  2.218157478510623E-02  3.032994505008789E-02
-5.284624323483E+00  1.929822917784590E-02  2.809967012680460E-02
-5.244624323483E+00  1.776706311899489E-02  2.532232428434324E-02
-5.204624323483E+00  1.745274508470202E-02  2.261439620946507E-02
-5.164624323483E+00  1.803764076806415E-02  2.031789447056392E-02
-5.124624323483E+00  1.921559908937341E-02  1.855297500533004E-02
-5.084624323483E+00  2.076229277684604E-02  1.732188772543431E-02
-5.044624323483E+00  2.253440421403191E-02  1.658485177903185E-02
-5.004624323483E+00  2.444697993042671E-02  1.630000116910936E-02
-4.964624323483E+00  2.645054692878578E-02  1.644074517291913E-02
-4.924624323483E+00  2.851290814782380E-02  1.700234815547803E-02
-4.884624323483E+00  3.060429060422802E-02  1.800417368656094E-02
-4.844624323483E+00  3.268282659782625E-02  1.948989106169161E-02
-4.804624323483E+00  3.467707167542441E-02  2.152472097543370E-02
-4.764624323483E+00  3.646290062042366E-02  2.418505442209304E-02
-4.724624323483E+00  3.783561553547156E-02  2.753033250972921E-02
-4.684624323483E+00  3.848971399504075E-02  3.154152809941090E-02
-4.644624323483E+00  3.804499414313266E-02  3.601682059635640E-02
-4.604624323483E+00  3.618643755902903E-02  4.046354619163788E-02
-4.564624323483E+00  3.294075758748802E-02  4.412909264869813E-02
-4.524624323483E+00  2.889968700566130E-02  4.633242117849448E-02
-4.484624323483E+00  2.503392193953268E-02  4.694826161497442E-02
-4.444624323483E+00  2.211856839017449E-02  4.654289889549299E-02
-4.404624323483E+00  2.031747566108476E-02  4.598516602145267E-02
-4.364624323483E+00  1.922657217882242E-02  4.595467450521244E-02
-4.324624323483E+00  1.815990636625576E-02  4.668301240742499E-02
-4.284624323483E+00  1.646447675274109E-02  4.789670231735686E-02
-4.244624323483E+00  1.384390229505392E-02  4.892012951475024E-02
-4.204624323483E+00  1.059520619239126E-02  4.902235757396074E-02
-4.164624323483E+00  7.477145245302445E-03  4.791396541011379E-02
-4.124624323483E+00  5.183845150442492E-03  4.594678077147778E-02
-4.084624323483E+00  3.916695268389010E-03  4.378145975643582E-02
-4.044624323483E+00  3.424514578896293E-03  4.191525735454889E-02
-4.004624323483E+00  3.324716700355720E-03  4.049626072894365E-02
-3.964624323483E+00  3.358156980240582E-03  3.943197818206535E-02
-3.924624323483E+00  3.438147920674252E-03  3.857391367047332E-02
-3.884624323483E+00  3.588165188418492E-03  3.780710149946455E-02
-3.844624323483E+00  3.913574645067557E-03  3.707478943451070E-02
-3.804624323483E+00  4.573544128938577E-03  3.644389294048989E-02
-3.764624323483E+00  5.664245174662577E-03  3.614823100912093E-02
-3.724624323483E+00  7.097817457609586E-03  3.650664659300511E-02
-3.684624323483E+00  8.583490425804108E-03  3.778812409856315E-02
