#Spectra: 1
Emin______Emax      -1.556462432348324E+01  2.443537567651676E+01
EminPole__EmaxPole  -5.383930493629766E+00  1.849368854576103E+01
dE________Gamma      4.000000000000000E-02  1.000000000000000E-01
Energy               Re[0]                  Im[0]                
-1.556462432348E+01  4.081004034518050E-03  2.013296599409979E-05
-1.552462432348E+01  4.544642544951967E-03  2.206584259754321E-05
-1.548462432348E+01  4.658641552771032E-03  2.261007946757090E-05
-1.544462432348E+01  4.716763020999496E-03  2.293373068089953E-05
-1.540462432348E+01  4.756066058268007E-03  2.318400829287287E-05
-1.536462432348E+01  4.786840430257659E-03  2.340175562530556E-05
-1.532462432348E+01  4.813067508288648E-03  2.360277033684050E-05
-1.528462432348E+01  4.836610163110060E-03  2.379444635144188E-05
-1.524462432348E+01  4.858456020643963E-03  2.398070870565069E-05
-1.520462432348E+01  4.879177450142051E-03  2.416383817446561E-05
-1.516462432348E+01  4.899129148054797E-03  2.434525451150756E-05
-1.512462432348E+01  4.918542752417727E-03  2.452589126709217E-05
-1.508462432348E+01  4.937576075096667E-03  2.470639070008932E-05
-1.504462432348E+01  4.956340461497581E-03  2.488721202927908E-05
-1.500462432348E+01  4.974916830276923E-03  2.506869485874977E-05
-1.496462432348E+01  4.993365503382126E-03  2.525109802721195E-05
-1.492462432348E+01  5.011732460392616E-03  2.543462431353298E-05
-1.488462432348E+01  5.030053447469610E-03  2.561943666082394E-05
-1.484462432348E+01  5.048356752834090E-03  2.580566913182314E-05
-1.480462432348E+01  5.066665127615015E-03  2.599343448946004E-05
-1.476462432348E+01  5.084997144030507E-03  2.618282955681797E-05
-1.472462432348E+01  5.103368174206286E-03  2.637393908082095E-05
-1.468462432348E+01  5.121791107741207E-03  2.656683856614131E-05
-1.464462432348E+01  5.140276885905868E-03  2.676159638681634E-05
-1.460462432348E+01  5.158834904915887E-03  2.695827538251599E-05
-1.456462432348E+01  5.177473324259194E-03  2.715693408138113E-05
-1.452462432348E+01  5.196199305188048E-03  2.735762764843844E-05
-1.448462432348E+01  5.215019197176378E-03  2.756040862974588E-05
-1.444462432348E+01  5.233938685141694E-03  2.776532754269584E-05
-1.440462432348E+01  5.252962906757619E-03  2.797243334920256E-05
-1.436462432348E+01  5.272096546733806E-03  2.818177383884789E-05
-1.432462432348E+01  5.291343913192506E-03  2.839339594217408E-05
-1.428462432348E+01  5.310709000006572E-03  2.860734598933219E-05
-1.424462432348E+01  5.330195538040017E-03  2.882366992565722E-05
-1.420462432348E+01  5.349807037549678E-03  2.904241349305718E-05
-1.416462432348E+01  5.369546823496408E-03  2.926362238409526E-05
-1.412462432348E+01  5.389418065131225E-03  2.948734237413978E-05
-1.408462432348E+01  5.409423800929685E-03  2.971361943580832E-05
-1.404462432348E+01  5.429566959724950E-03  2.994249983905647E-05
-1.400462432348E+01  5.449850378717071E-03  3.017403023958624E-05
-1.396462432348E+01  5.470276818902659E-03  3.040825775772146E-05
-1.392462432348E+01  5.490848978363512E-03  3.064523004948835E-05
-1.388462432348E+01  5.511569503770700E-03  3.088499537131444E-05
-1.384462432348E+01  5.532441000394562E-03  3.112760263950447E-05
-1.380462432348E+01  5.553466040859279E-03  3.137310148544560E-05
-1.376462432348E+01  5.574647172838379E-03  3.162154230733233E-05
-1.372462432348E+01  5.595986925853929E-03  3.187297631907038E-05
-1.368462432348E+01  5.617487817314916E-03  3.212745559691120E-05
-1.364462432348E+01  5.639152357907816E-03  3.238503312428351E-05
-1.360462432348E+01  5.660983056434152E-03  3.264576283521741E-05
-1.356462432348E+01  5.682982424175279E-03  3.290969965670056E-05
-1.352462432348E+01  5.705152978851474E-03  3.317689955025570E-05
-1.348462432348E+01  5.727497248233331E-03  3.344741955299419E-05
-1.344462432348E+01  5.750017773453773E-03  3.372131781836400E-05
-1.340462432348E+01  5.772717112062751E-03  3.399865365678775E-05
-1.336462432348E+01  5.795597840860672E-03  3.427948757636223E-05
-1.332462432348E+01  5.818662558540972E-03  3.456388132377366E-05
-1.328462432348E+01  5.841913888169047E-03  3.485189792556832E-05
-1.324462432348E+01  5.865354479520499E-03  3.514360172990463E-05
-1.320462432348E+01  5.888987011298704E-03  3.543905844890502E-05
-1.316462432348E+01  5.912814193249719E-03  3.573833520171445E-05
-1.312462432348E+01  5.936838768189654E-03  3.604150055836843E-05
-1.308462432348E+01  5.961063513958190E-03  3.634862458456637E-05
-1.304462432348E+01  5.985491245310399E-03  3.665977888744382E-05
-1.300462432348E+01  6.010124815757576E-03  3.697503666242978E-05
-1.296462432348E+01  6.034967119366133E-03  3.729447274127850E-05
-1.292462432348E+01  6.060021092523883E-03  3.761816364135806E-05
-1.288462432348E+01  6.085289715680464E-03  3.794618761628134E-05
-1.284462432348E+01  6.110776015069643E-03  3.827862470796139E-05
-1.280462432348E+01  6.136483064419260E-03  3.861555680017451E-05
-1.276462432348E+01  6.162413986654568E-03  3.895706767371515E-05
-1.272462432348E+01  6.188571955600759E-03  3.930324306322810E-05
-1.268462432348E+01  6.214960197688709E-03  3.965417071580255E-05
-1.264462432348E+01  6.241581993669221E-03  4.000994045141664E-05
-1.260462432348E+01  6.268440680339555E-03  4.037064422532305E-05
-1.256462432348E+01  6.295539652286367E-03  4.073637619246626E-05
-1.252462432348E+01  6.322882363648667E-03  4.110723277402890E-05
-1.248462432348E+01  6.350472329904616E-03  4.148331272620311E-05
-1.244462432348E+01  6.378313129685297E-03  4.186471721128943E-05
-1.240462432348E+01  6.406408406619016E-03  4.225154987122890E-05
-1.236462432348E+01  6.434761871209175E-03  4.264391690367665E-05
-1.232462432348E+01  6.463377302748752E-03  4.304192714073097E-05
-1.228462432348E+01  6.492258551274818E-03  4.344569213043653E-05
-1.224462432348E+01  6.521409539565742E-03  4.385532622118404E-05
-1.220462432348E+01  6.550834265184094E-03  4.427094664913508E-05
-1.216462432348E+01  6.580536802568658E-03  4.469267362880779E-05
-1.212462432348E+01  6.610521305177969E-03  4.512063044696091E-05
-1.208462432348E+01  6.640792007688848E-03  4.555494355992584E-05
-1.204462432348E+01  6.671353228252655E-03  4.599574269453784E-05
-1.200462432348E+01  6.702209370812728E-03  4.644316095282882E-05
-1.196462432348E+01  6.733364927485603E-03  4.689733492064996E-05
-1.192462432348E+01  6.764824481009811E-03  4.735840478039958E-05
-1.188462432348E+01  6.796592707265119E-03  4.782651442804388E-05
-1.184462432348E+01  6.828674377865613E-03  4.830181159462303E-05
-1.180462432348E+01  6.861074362830390E-03  4.878444797244839E-05
-1.176462432348E+01  6.893797633335077E-03  4.927457934620495E-05
-1.172462432348E+01  6.926849264547958E-03  4.977236572918422E-05
-1.168462432348E+01  6.960234438554671E-03  5.027797150488578E-05
-1.164462432348E+01  6.993958447375123E-03  5.079156557423681E-05
-1.160462432348E+01  7.028026696077046E-03  5.131332150869094E-05
-1.156462432348E+01  7.062444705990150E-03  5.184341770948529E-05
-1.152462432348E+01  7.097218118025451E-03  5.238203757334487E-05
-1.148462432348E+01  7.132352696104413E-03  5.292936966494233E-05
-1.144462432348E+01  7.167854330702384E-03  5.348560789643588E-05
-1.140462432348E+01  7.203729042511961E-03  5.405095171442694E-05
-1.136462432348E+01  7.239982986230607E-03  5.462560629469668E-05
-1.132462432348E+01  7.276622454478895E-03  5.520978274510214E-05
-1.128462432348E+01  7.313653881854326E-03  5.580369831703045E-05
-1.124462432348E+01  7.351083849127263E-03  5.640757662583783E-05
-1.120462432348E+01  7.388919087584742E-03  5.702164788071702E-05
-1.116462432348E+01  7.427166483529097E-03  5.764614912446832E-05
-1.112462432348E+01  7.465833082937930E-03  5.828132448367241E-05
-1.108462432348E+01  7.504926096292917E-03  5.892742542979449E-05
-1.104462432348E+01  7.544452903584734E-03  5.958471105177878E-05
-1.100462432348E+01  7.584421059502188E-03  6.025344834072504E-05
-1.096462432348E+01  7.624838298813758E-03  6.093391248727555E-05
-1.092462432348E+01  7.665712541950462E-03  6.162638719237596E-05
-1.088462432348E+01  7.707051900799045E-03  6.233116499211399E-05
-1.084462432348E+01  7.748864684715205E-03  6.304854759738571E-05
-1.080462432348E+01  7.791159406767340E-03  6.377884624917720E-05
-1.076462432348E+01  7.833944790220817E-03  6.452238209030805E-05
-1.072462432348E+01  7.877229775275010E-03  6.527948655452467E-05
-1.068462432348E+01  7.921023526064204E-03  6.605050177389681E-05
-1.064462432348E+01  7.965335437935253E-03  6.683578100552231E-05
-1.060462432348E+01  8.010175145015298E-03  6.763568907861463E-05
-1.056462432348E+01  8.055552528083283E-03  6.845060286311331E-05
-1.052462432348E+01  8.101477722760257E-03  6.928091176103004E-05
-1.048462432348E+01  8.147961128033794E-03  7.012701822182815E-05
-1.044462432348E+01  8.195013415133201E-03  7.098933828320579E-05
-1.040462432348E+01  8.242645536772873E-03  7.186830213875957E-05
-1.036462432348E+01  8.290868736782033E-03  7.276435473408822E-05
-1.032462432348E+01  8.339694560140604E-03  7.367795639301201E-05
-1.028462432348E+01  8.389134863441686E-03  7.460958347569029E-05
-1.024462432348E+01  8.439201825802496E-03  7.555972907054390E-05
-1.020462432348E+01  8.489907960246993E-03  7.652890372201978E-05
-1.016462432348E+01  8.541266125584689E-03  7.751763619637730E-05
-1.012462432348E+01  8.593289538811716E-03  7.852647428782647E-05
-1.008462432348E+01  8.645991788061941E-03  7.955598566751592E-05
-1.004462432348E+01  8.699386846137098E-03  8.060675877804408E-05
-1.000462432348E+01  8.753489084647771E-03  8.167940377635921E-05
-9.964624323483E+00  8.808313288797788E-03  8.277455352812552E-05
-9.924624323483E+00  8.863874672847735E-03  8.389286465685274E-05
-9.884624323483E+00  8.920188896294874E-03  8.503501865133505E-05
-9.844624323483E+00  8.977272080809857E-03  8.620172303520739E-05
-9.804624323483E+00  9.035140827972230E-03  8.739371260271401E-05
-9.764624323483E+00  9.093812237850855E-03  8.861175072509989E-05
-9.724624323483E+00  9.153303928477305E-03  8.985663073236369E-05
-9.684624323483E+00  9.213634056263955E-03  9.112917737549616E-05
-9.644624323483E+00  9.274821337422393E-03  9.243024837470871E-05
-9.604624323483E+00  9.336885070440771E-03  9.376073605960969E-05
-9.564624323483E+00  9.399845159683623E-03  9.512156910775110E-05
-9.524624323483E+00  9.463722140181539E-03  9.651371438849269E-05
-9.484624323483E+00  9.528537203683161E-03  9.793817891969442E-05
-9.444624323483E+00  9.594312226047154E-03  9.939601194536521E-05
-9.404624323483E+00  9.661069796057060E-03  1.008883071430809E-04
-9.364624323483E+00  9.728833245748750E-03  1.024162049707146E-04
-9.324624323483E+00  9.797626682345878E-03  1.039808951628413E-04
-9.284624323483E+00  9.867475021906633E-03  1.055836193880726E-04
-9.244624323483E+00  9.938404024792503E-03  1.072256740795440E-04
-9.204624323483E+00  1.001044033307833E-02  1.089084134518641E-04
-9.164624323483E+00  1.008361151003197E-02  1.106332527190113E-04
-9.124624323483E+00  1.015794608180221E-02  1.124016715289647E-04
-9.084624323483E+00  1.023347358146437E-02  1.142152176322947E-04
-9.044624323483E+00  1.031022459558445E-02  1.160755108035210E-04
-9.004624323483E+00  1.038823081347681E-02  1.179842470357960E-04
-8.964624323483E+00  1.046752507934355E-02  1.199432030314029E-04
-8.924624323483E+00  1.054814144749979E-02  1.219542410127120E-04
-8.884624323483E+00  1.063011524090637E-02  1.240193138805966E-04
-8.844624323483E+00  1.071348311324932E-02  1.261404707499689E-04
-8.804624323483E+00  1.079828311482753E-02  1.283198628950042E-04
-8.764624323483E+00  1.088455476253100E-02  1.305597501398973E-04
-8.724624323483E+00  1.097233911421800E-02  1.328625077346246E-04
-8.684624323483E+00  1.106167884782690E-02  1.352306337592303E-04
-8.644624323483E+00  1.115261834558755E-02  1.376667571046946E-04
-8.604624323483E+00  1.124520378373220E-02  1.401736460834895E-04
-8.564624323483E+00  1.133948322814154E-02  1.427542177286178E-04
-8.524624323483E+00  1.143550673640273E-02  1.454115478462802E-04
-8.484624323483E+00  1.153332646680181E-02  1.481488818944725E-04
-8.444624323483E+00  1.163299679482331E-02  1.509696467678561E-04
-8.404624323483E+00  1.173457443778532E-02  1.538774635783165E-04
-8.364624323483E+00  1.183811858830091E-02  1.568761615308492E-04
-8.324624323483E+00  1.194369105732710E-02  1.599697930059956E-04
-8.284624323483E+00  1.205135642763793E-02  1.631626499731419E-04
-8.244624323483E+00  1.216118221864783E-02  1.664592818738765E-04
-8.204624323483E+00  1.227323906360650E-02  1.698645151314900E-04
-8.164624323483E+00  1.238760090029640E-02  1.733834744619397E-04
-8.124624323483E+00  1.250434517648662E-02  1.770216061835624E-04
-8.084624323483E+00  1.262355307153469E-02  1.807847037478936E-04
-8.044624323483E+00  1.274530973568355E-02  1.846789357426875E-04
-8.004624323483E+00  1.286970454877645E-02  1.887108766512068E-04
-7.964624323483E+00  1.299683140031231E-02  1.928875406897649E-04
-7.924624323483E+00  1.312678899298897E-02  1.972164190892151E-04
-7.884624323483E+00  1.325968117213863E-02  2.017055212365470E-04
-7.844624323483E+00  1.339561728375198E-02  2.063634201512139E-04
-7.804624323483E+00  1.353471256412064E-02  2.111993028386219E-04
-7.764624323483E+00  1.367708856450864E-02  2.162230261421330E-04
-7.724624323483E+00  1.382287361470094E-02  2.214451788069491E-04
-7.684624323483E+00  1.397220332977838E-02  2.268771505768711E-04
-7.644624323483E+00  1.412522116504706E-02  2.325312092710755E-04
-7.604624323483E+00  1.428207902471650E-02  2.384205869364267E-04
-7.564624323483E+00  1.444293793069489E-02  2.445595763457559E-04
-7.524624323483E+00  1.460796875876390E-02  2.509636393194034E-04
-7.484624323483E+00  1.477735305044029E-02  2.576495285927610E-04
-7.444624323483E+00  1.495128391004702E-02  2.646354252445822E-04
-7.404624323483E+00  1.512996699794283E-02  2.719410940495823E-04
-7.364624323483E+00  1.531362163252878E-02  2.795880595366452E-04
-7.324624323483E+00  1.550248201562194E-02  2.875998060363236E-04
-7.284624323483E+00  1.569679859811114E-02  2.960020056075468E-04
-7.244624323483E+00  1.589683960556867E-02  3.048227784678971E-04
-7.204624323483E+00  1.610289274677238E-02  3.140929914450111E-04
-7.164624323483E+00  1.631526713201167E-02  3.238466010575752E-04
-7.124624323483E+00  1.653429543274525E-02  3.341210491723924E-04
-7.084624323483E+00  1.676033631983251E-02  3.449577208325212E-04
-7.044624323483E+00  1.699377722438605E-02  3.564024758920703E-04
-7.004624323483E+00  1.723503747358315E-02  3.685062686314897E-04
-6.964624323483E+00  1.748457186387495E-02  3.813258727005380E-04
-6.924624323483E+00  1.774287474640653E-02  3.949247327248269E-04
-6.884624323483E+00  1.801048471469080E-02  4.093739689531242E-04
-6.844624323483E+00  1.828799000342154E-02  4.247535677318998E-04
-6.804624323483E+00  1.857603473074454E-02  4.411537987918377E-04
-6.764624323483E+00  1.887532614562299E-02  4.586769108854538E-04
-6.724624323483E+00  1.918664307881608E-02  4.774391709946680E-04
-6.684624323483E+00  1.951084584269208E-02  4.975733301843794E-04
-6.644624323483E+00  1.984888788461233E-02  5.192316226639283E-04
-6.604624323483E+00  2.020182957499318E-02  5.425894357526128E-04
-6.564624323483E+00  2.057085460986461E-02  5.678498300659737E-04
-6.524624323483E+00  2.095728963631414E-02  5.952491453739355E-04
-6.484624323483E+00  2.136262787802133E-02  6.250640040069089E-04
-6.444624323483E+00  2.178855776166244E-02  6.576201287820100E-04
-6.404624323483E+00  2.223699784375052E-02  6.933035384920269E-04
-6.364624323483E+00  2.271013974064788E-02  7.325748893408424E-04
-6.324624323483E+00  2.321050131411168E-02  7.759880229019084E-04
-6.284624323483E+00  2.374099312222668E-02  8.242142024129978E-04
-6.244624323483E+00  2.430500220176984E-02  8.780741350621732E-04
-6.204624323483E+00  2.490649873911764E-02  9.385807919778722E-04
-6.164624323483E+00  2.555017331992977E-02  1.006997416661455E-03
-6.124624323483E+00  2.624161554312662E-02  1.084917230303442E-03
-6.084624323483E+00  2.698754934489345E-02  1.174374657794616E-03
-6.044624323483E+00  2.779614720706531E-02  1.278003199108289E-03
-6.004624323483E+00  2.867745582885776E-02  1.399263744239343E-03
-5.964624323483E+00  2.964398199008373E-02  1.542781687656869E-03
-5.924624323483E+00  3.071151289396504E-02  1.714856330158207E-03
-5.884624323483E+00  3.190028656410352E-02  1.924250823223067E-03
-5.844624323483E+00  3.323669594694467E-02  2.183453496491012E-03
-5.804624323483E+00  3.475582484302734E-02  2.510759879087352E-03
-5.764624323483E+00  3.650530934377470E-02  2.933842647066438E-03
-5.724624323483E+00  3.855135434370333E-02  3.496147615050193E-03
-5.684624323483E+00  4.098829875944198E-02  4.268953545017414E-03
-5.644624323483E+00  4.395396957694116E-02  5.375512636458498E-03
-5.604624323483E+00  4.765373211073898E-02  7.042879860753014E-03
-5.564624323483E+00  5.239269086804221E-02  9.722539029270486E-03
-5.524624323483E+00  5.858226101134406E-02  1.439625202895286E-02
-5.484624323483E+00  6.645860147764386E-02  2.339622259601277E-02
-5.444624323483E+00  7.382515039265988E-02  4.223250451131091E-02
-5.404624323483E+00  6.541102256767081E-02  7.721685913817813E-02
-5.364624323483E+00  1.427568666698100E-02  9.472557288786593E-02
-5.324624323483E+00 -1.755389423530055E-02  5.979706835375242E-02
-5.284624323483E+00 -1.503332220281191E-02  3.231668920082176E-02
-5.244624323483E+00 -6.408164410108112E-03  1.910845740509560E-02
-5.204624323483E+00  1.177015533346241E-03  1.271529213408122E-02
-5.164624323483E+00  7.242746641015479E-03  9.347739509150273E-03
-5.124624323483E+00  1.220493965038557E-02  7.453237629110611E-03
-5.084624323483E+00  1.645056358734745E-02  6.358874719328181E-03
-5.044624323483E+00  2.025969698004051E-02  5.749331939441978E-03
-5.004624323483E+00  2.383580451924317E-02  5.470158472605579E-03
-4.964624323483E+00  2.733814630348707E-02  5.448986171727681E-03
-4.924624323483E+00  3.090619816499522E-02  5.663490074872888E-03
-4.884624323483E+00  3.467926670092177E-02  6.131456170357011E-03
-4.844624323483E+00  3.881566133445691E-02  6.915926636191295E-03
-4.804624323483E+00  4.351588433404890E-02  8.148446619613016E-03
-4.764624323483E+00  4.905439654375125E-02  1.008640070228791E-02
-4.724624323483E+00  5.582028234189040E-02  1.325075314200229E-02
-4.684624323483E+00  6.432964186247273E-02  1.877753742119594E-02
-4.644624323483E+00  7.491546655599443E-02  2.936394784282920E-02
-4.604624323483E+00  8.517458724172747E-02  5.143330315141148E-02
-4.564624323483E+00  7.743730868709013E-02  9.276472135498003E-02
-4.524624323483E+00  1.840431418086148E-02  1.121073318801892E-01
-4.484624323483E+00 -1.098782386319498E-02  7.231614397178195E-02
-4.444624323483E+00 -4.947332230833148E-03  4.614266422581887E-02
-4.404624323483E+00  6.536501189058892E-03  3.364615005326590E-02
-4.364624323483E+00  2.041428629241883E-02  2.955108113453902E-02
-4.324624323483E+00  3.510028182090973E-02  3.360870596150130E-02
-4.284624323483E+00  4.883221962893205E-02  4.907972793673675E-02
-4.244624323483E+00  4.883110472422750E-02  8.294428953635159E-02
-4.204624323483E+00  1.501209836022939E-03  1.078437332127556E-01
-4.164624323483E+00 -3.190610211305317E-02  7.183836495969156E-02
-4.124624323483E+00 -2.580657954845376E-02  4.313687566562529E-02
-4.084624323483E+00 -1.210645913899850E-02  3.175345521192483E-02
-4.044624323483E+00  1.113711079854246E-04  3.139150409849395E-02
-4.004624323483E+00  4.978284157598285E-03  3.892804589314683E-02
-3.964624323483E+00 -1.518803691696472E-03  4.078163591725068E-02
-3.924624323483E+00  5.490081026909105E-04  3.498932018131443E-02
-3.884624323483E+00  5.383434116420579E-03  3.908102143396593E-02
-3.844624323483E+00 -4.104823528052508E-03  4.426347020222465E-02
-3.804624323483E+00 -9.915495320956747E-03  3.150261015657976E-02
-3.764624323483E+00 -3.053979406671697E-03  2.174222752131526E-02
-3.724624323483E+00  6.501874259389809E-03  1.802825293392294E-02
-3.684624323483E+00  1.652501830598002E-02  1.797589788406304E-02
