#Spectra: 1
Emin______Emax      -1.556462432348325E+01  2.443537567651675E+01
EminPole__EmaxPole  -5.383930493629776E+00  1.849368854576111E+01
dE________Gamma      4.000000000000000E-02  1.000000000000000E-01
Energy               Re[0]                  Im[0]                
-1.556462432348E+01 -4.870984319126366E-07 -2.611775157274113E-09
-1.552462432348E+01 -5.425655176344789E-07 -2.862945974357893E-09
-1.548462432348E+01 -5.563227663047333E-07 -2.934007429543480E-09
-1.544462432348E+01 -5.634162152159617E-07 -2.976463747126663E-09
-1.540462432348E+01 -5.682666696075951E-07 -3.009408307986136E-09
-1.536462432348E+01 -5.721015022509401E-07 -3.038138198708003E-09
-1.532462432348E+01 -5.753955807962742E-07 -3.064702145753886E-09
-1.528462432348E+01 -5.783710819582751E-07 -3.090058973776012E-09
-1.524462432348E+01 -5.811457919863290E-07 -3.114717635068443E-09
-1.520462432348E+01 -5.837879728534220E-07 -3.138973848496492E-09
-1.516462432348E+01 -5.863399283119830E-07 -3.163011676110342E-09
-1.512462432348E+01 -5.888292880208449E-07 -3.186952130781034E-09
-1.508462432348E+01 -5.912748788941268E-07 -3.210878452169023E-09
-1.504462432348E+01 -5.936899877980775E-07 -3.234850144183222E-09
-1.500462432348E+01 -5.960842742155000E-07 -3.258911199359515E-09
-1.496462432348E+01 -5.984649423556657E-07 -3.283095136229356E-09
-1.492462432348E+01 -6.008374868965003E-07 -3.307428202606463E-09
-1.488462432348E+01 -6.032061828680717E-07 -3.331931479032128E-09
-1.484462432348E+01 -6.055744165447397E-07 -3.356622299151564E-09
-1.480462432348E+01 -6.079449144529240E-07 -3.381515232366991E-09
-1.476462432348E+01 -6.103199052568041E-07 -3.406622778637126E-09
-1.472462432348E+01 -6.127012364532723E-07 -3.431955869197788E-09
-1.468462432348E+01 -6.150904598935460E-07 -3.457524233861788E-09
-1.464462432348E+01 -6.174888954602840E-07 -3.483336674578266E-09
-1.460462432348E+01 -6.198976791283878E-07 -3.509401272194133E-09
-1.456462432348E+01 -6.223177997174461E-07 -3.535725544894012E-09
-1.452462432348E+01 -6.247501273076115E-07 -3.562316570873331E-09
-1.448462432348E+01 -6.271954354586960E-07 -3.589181084627696E-09
-1.444462432348E+01 -6.296544187669032E-07 -3.616325553382121E-09
-1.440462432348E+01 -6.321277068377899E-07 -3.643756238148275E-09
-1.436462432348E+01 -6.346158755090329E-07 -3.671479243215469E-09
-1.432462432348E+01 -6.371194559722324E-07 -3.699500556541183E-09
-1.428462432348E+01 -6.396389421817497E-07 -3.727826083130754E-09
-1.424462432348E+01 -6.421747969755157E-07 -3.756461672676995E-09
-1.420462432348E+01 -6.447274571205009E-07 -3.785413142883720E-09
-1.416462432348E+01 -6.472973375147740E-07 -3.814686299220020E-09
-1.412462432348E+01 -6.498848347242210E-07 -3.844286951690349E-09
-1.408462432348E+01 -6.524903299436212E-07 -3.874220929596326E-09
-1.404462432348E+01 -6.551141915305828E-07 -3.904494094097429E-09
-1.400462432348E+01 -6.577567771305747E-07 -3.935112349437491E-09
-1.396462432348E+01 -6.604184355271507E-07 -3.966081652875461E-09
-1.392462432348E+01 -6.630995082300891E-07 -3.997408023630033E-09
-1.388462432348E+01 -6.658003308316861E-07 -4.029097550896592E-09
-1.384462432348E+01 -6.685212342157654E-07 -4.061156401294325E-09
-1.380462432348E+01 -6.712625455904123E-07 -4.093590825617814E-09
-1.376462432348E+01 -6.740245894138849E-07 -4.126407165236936E-09
-1.372462432348E+01 -6.768076881932801E-07 -4.159611858068728E-09
-1.368462432348E+01 -6.796121632200648E-07 -4.193211444204129E-09
-1.364462432348E+01 -6.824383351957604E-07 -4.227212571376577E-09
-1.360462432348E+01 -6.852865248154969E-07 -4.261622000116794E-09
-1.356462432348E+01 -6.881570533011487E-07 -4.296446608877606E-09
-1.352462432348E+01 -6.910502428491911E-07 -4.331693398878719E-09
-1.348462432348E+01 -6.939664170783575E-07 -4.367369499086802E-09
-1.344462432348E+01 -6.969059014246272E-07 -4.403482170881249E-09
-1.340462432348E+01 -6.998690234852939E-07 -4.440038812935785E-09
-1.336462432348E+01 -7.028561133862361E-07 -4.477046965853057E-09
-1.332462432348E+01 -7.058675040690133E-07 -4.514514316972391E-09
-1.328462432348E+01 -7.089035316067912E-07 -4.552448705168121E-09
-1.324462432348E+01 -7.119645354669338E-07 -4.590858125579352E-09
-1.320462432348E+01 -7.150508587915834E-07 -4.629750734567291E-09
-1.316462432348E+01 -7.181628486253206E-07 -4.669134854578359E-09
-1.312462432348E+01 -7.213008561782694E-07 -4.709018979168383E-09
-1.308462432348E+01 -7.244652370402383E-07 -4.749411778091390E-09
-1.304462432348E+01 -7.276563514251652E-07 -4.790322102472518E-09
-1.300462432348E+01 -7.308745643629965E-07 -4.831758990157083E-09
-1.296462432348E+01 -7.341202459375186E-07 -4.873731671090771E-09
-1.292462432348E+01 -7.373937714737125E-07 -4.916249572828883E-09
-1.288462432348E+01 -7.406955217604792E-07 -4.959322326303981E-09
-1.284462432348E+01 -7.440258832468898E-07 -5.002959771582403E-09
-1.280462432348E+01 -7.473852482304002E-07 -5.047171963857873E-09
-1.276462432348E+01 -7.507740150803663E-07 -5.091969179582269E-09
-1.272462432348E+01 -7.541925884185085E-07 -5.137361922851134E-09
-1.268462432348E+01 -7.576413793295741E-07 -5.183360931802809E-09
-1.264462432348E+01 -7.611208055652070E-07 -5.229977185364565E-09
-1.260462432348E+01 -7.646312917243492E-07 -5.277221910133367E-09
-1.256462432348E+01 -7.681732694743972E-07 -5.325106587480982E-09
-1.252462432348E+01 -7.717471777657817E-07 -5.373642960819554E-09
-1.248462432348E+01 -7.753534630014371E-07 -5.422843043138809E-09
-1.244462432348E+01 -7.789925792917069E-07 -5.472719124894171E-09
-1.240462432348E+01 -7.826649886355574E-07 -5.523283781961659E-09
-1.236462432348E+01 -7.863711611607647E-07 -5.574549883867720E-09
-1.232462432348E+01 -7.901115753182713E-07 -5.626530602469522E-09
-1.228462432348E+01 -7.938867181367154E-07 -5.679239420714700E-09
-1.224462432348E+01 -7.976970854245871E-07 -5.732690141791761E-09
-1.220462432348E+01 -8.015431820302225E-07 -5.786896898666604E-09
-1.216462432348E+01 -8.054255220464211E-07 -5.841874163682983E-09
-1.212462432348E+01 -8.093446291055717E-07 -5.897636758835293E-09
-1.208462432348E+01 -8.133010365752884E-07 -5.954199866038547E-09
-1.204462432348E+01 -8.172952878594593E-07 -6.011579038110660E-09
-1.200462432348E+01 -8.213279366364059E-07 -6.069790209908765E-09
-1.196462432348E+01 -8.253995471361366E-07 -6.128849709799712E-09
-1.192462432348E+01 -8.295106944185489E-07 -6.188774271821878E-09
-1.188462432348E+01 -8.336619646513636E-07 -6.249581048069108E-09
-1.184462432348E+01 -8.378539554148514E-07 -6.311287621451327E-09
-1.180462432348E+01 -8.420872759914391E-07 -6.373912019166299E-09
-1.176462432348E+01 -8.463625476809937E-07 -6.437472726446710E-09
-1.172462432348E+01 -8.506804041112923E-07 -6.501988700967809E-09
-1.168462432348E+01 -8.550414915670972E-07 -6.567479387668841E-09
-1.164462432348E+01 -8.594464693384207E-07 -6.633964734144264E-09
-1.160462432348E+01 -8.638960100500495E-07 -6.701465206702626E-09
-1.156462432348E+01 -8.683908000287922E-07 -6.770001806931339E-09
-1.152462432348E+01 -8.729315396685660E-07 -6.839596088935878E-09
-1.148462432348E+01 -8.775189438157745E-07 -6.910270177313768E-09
-1.144462432348E+01 -8.821537421381737E-07 -6.982046785510867E-09
-1.140462432348E+01 -8.868366795672893E-07 -7.054949235525276E-09
-1.136462432348E+01 -8.915685166838392E-07 -7.129001477541700E-09
-1.132462432348E+01 -8.963500301517372E-07 -7.204228110999903E-09
-1.128462432348E+01 -9.011820131690657E-07 -7.280654406320635E-09
-1.124462432348E+01 -9.060652759238058E-07 -7.358306327303377E-09
-1.120462432348E+01 -9.110006460697190E-07 -7.437210554667487E-09
-1.116462432348E+01 -9.159889692121143E-07 -7.517394510358735E-09
-1.112462432348E+01 -9.210311094087826E-07 -7.598886383077742E-09
-1.108462432348E+01 -9.261279497027071E-07 -7.681715154597627E-09
-1.104462432348E+01 -9.312803926570077E-07 -7.765910627312585E-09
-1.100462432348E+01 -9.364893609086496E-07 -7.851503452906737E-09
-1.096462432348E+01 -9.417557977584870E-07 -7.938525162208068E-09
-1.092462432348E+01 -9.470806677589014E-07 -8.027008196397277E-09
-1.088462432348E+01 -9.524649573376937E-07 -8.116985939304884E-09
-1.084462432348E+01 -9.579096754386204E-07 -8.208492751432800E-09
-1.080462432348E+01 -9.634158541809306E-07 -8.301564005160246E-09
-1.076462432348E+01 -9.689845495591185E-07 -8.396236121589892E-09
-1.072462432348E+01 -9.746168421564019E-07 -8.492546609001986E-09
-1.068462432348E+01 -9.803138378652561E-07 -8.590534103049799E-09
-1.064462432348E+01 -9.860766686601752E-07 -8.690238408629390E-09
-1.060462432348E+01 -9.919064934072527E-07 -8.791700543800109E-09
-1.056462432348E+01 -9.978044986861973E-07 -8.894962785449725E-09
-1.052462432348E+01 -1.003771899626286E-06 -9.000068717419907E-09
-1.048462432348E+01 -1.009809940806198E-06 -9.107063280258033E-09
-1.044462432348E+01 -1.015919897190486E-06 -9.215992823968517E-09
-1.040462432348E+01 -1.022103075059943E-06 -9.326905162635263E-09
-1.036462432348E+01 -1.028360813036061E-06 -9.439849632024731E-09
-1.032462432348E+01 -1.034694483084318E-06 -9.554877149686541E-09
-1.028462432348E+01 -1.041105491627531E-06 -9.672040277891507E-09
-1.024462432348E+01 -1.047595280607556E-06 -9.791393290042113E-09
-1.020462432348E+01 -1.054165328721858E-06 -9.912992239681268E-09
-1.016462432348E+01 -1.060817152572246E-06 -1.003689503344567E-08
-1.012462432348E+01 -1.067552307954456E-06 -1.016316150727573E-08
-1.008462432348E+01 -1.074372391164760E-06 -1.029185350658051E-08
-1.004462432348E+01 -1.081279040354914E-06 -1.042303497066714E-08
-1.000462432348E+01 -1.088273936986730E-06 -1.055677202089544E-08
-9.964624323483E+00 -1.095358807274276E-06 -1.069313305403826E-08
-9.924624323483E+00 -1.102535423762964E-06 -1.083218884004664E-08
-9.884624323483E+00 -1.109805606927591E-06 -1.097401262512395E-08
-9.844624323483E+00 -1.117171226898226E-06 -1.111868024023982E-08
-9.804624323483E+00 -1.124634205140700E-06 -1.126627021535209E-08
-9.764624323483E+00 -1.132196516360605E-06 -1.141686390004483E-08
-9.724624323483E+00 -1.139860190392691E-06 -1.157054559040624E-08
-9.684624323483E+00 -1.147627314233919E-06 -1.172740266316172E-08
-9.644624323483E+00 -1.155500034090746E-06 -1.188752571716804E-08
-9.604624323483E+00 -1.163480557628449E-06 -1.205100872300110E-08
-9.564624323483E+00 -1.171571156247108E-06 -1.221794918089776E-08
-9.524624323483E+00 -1.179774167464427E-06 -1.238844828771355E-08
-9.484624323483E+00 -1.188091997470664E-06 -1.256261111400770E-08
-9.444624323483E+00 -1.196527123730941E-06 -1.274054679104657E-08
-9.404624323483E+00 -1.205082097811672E-06 -1.292236870907043E-08
-9.364624323483E+00 -1.213759548210748E-06 -1.310819472775958E-08
-9.324624323483E+00 -1.222562183446105E-06 -1.329814739915100E-08
-9.284624323483E+00 -1.231492795270637E-06 -1.349235420442070E-08
-9.244624323483E+00 -1.240554262006115E-06 -1.369094780549178E-08
-9.204624323483E+00 -1.249749552081871E-06 -1.389406631212339E-08
-9.164624323483E+00 -1.259081727773741E-06 -1.410185356671750E-08
-9.124624323483E+00 -1.268553949086338E-06 -1.431445944699873E-08
-9.084624323483E+00 -1.278169477893210E-06 -1.453204018835724E-08
-9.044624323483E+00 -1.287931682296932E-06 -1.475475872828300E-08
-9.004624323483E+00 -1.297844041161821E-06 -1.498278507312999E-08
-8.964624323483E+00 -1.307910148995162E-06 -1.521629669024034E-08
-8.924624323483E+00 -1.318133720995312E-06 -1.545547892694070E-08
-8.884624323483E+00 -1.328518598489442E-06 -1.570052545890278E-08
-8.844624323483E+00 -1.339068754613191E-06 -1.595163877022828E-08
-8.804624323483E+00 -1.349788300299464E-06 -1.620903066781784E-08
-8.764624323483E+00 -1.360681490708017E-06 -1.647292283341254E-08
-8.724624323483E+00 -1.371752731965624E-06 -1.674354741643086E-08
-8.684624323483E+00 -1.383006588327251E-06 -1.702114767098041E-08
-8.644624323483E+00 -1.394447789804286E-06 -1.730597864148069E-08
-8.604624323483E+00 -1.406081240214646E-06 -1.759830790130764E-08
-8.564624323483E+00 -1.417912025783333E-06 -1.789841634902168E-08
-8.524624323483E+00 -1.429945424288983E-06 -1.820659906843610E-08
-8.484624323483E+00 -1.442186914775837E-06 -1.852316625761831E-08
-8.444624323483E+00 -1.454642187930190E-06 -1.884844423467496E-08
-8.404624323483E+00 -1.467317157148120E-06 -1.918277652760705E-08
-8.364624323483E+00 -1.480217970360328E-06 -1.952652505574331E-08
-8.324624323483E+00 -1.493351022659356E-06 -1.988007141417237E-08
-8.284624323483E+00 -1.506722969797772E-06 -2.024381827045534E-08
-8.244624323483E+00 -1.520340742729558E-06 -2.061819088536999E-08
-8.204624323483E+00 -1.534211563110543E-06 -2.100363877314058E-08
-8.164624323483E+00 -1.548342959974485E-06 -2.140063751333750E-08
-8.124624323483E+00 -1.562742787729254E-06 -2.180969073476201E-08
-8.084624323483E+00 -1.577419245444541E-06 -2.223133228854495E-08
-8.044624323483E+00 -1.592380897666066E-06 -2.266612863354027E-08
-8.004624323483E+00 -1.607636696925171E-06 -2.311468145903132E-08
-7.964624323483E+00 -1.623196008024732E-06 -2.357763057278502E-08
-7.924624323483E+00 -1.639068634375008E-06 -2.405565708723243E-08
-7.884624323483E+00 -1.655264846460517E-06 -2.454948694198442E-08
-7.844624323483E+00 -1.671795412884707E-06 -2.505989480461218E-08
-7.804624323483E+00 -1.688671633990510E-06 -2.558770839710055E-08
-7.764624323483E+00 -1.705905378637108E-06 -2.613381330923846E-08
-7.724624323483E+00 -1.723509124173766E-06 -2.669915835871770E-08
-7.684624323483E+00 -1.741496000321069E-06 -2.728476157806815E-08
-7.644624323483E+00 -1.759879837051766E-06 -2.789171691343947E-08
-7.604624323483E+00 -1.778675217317838E-06 -2.852120173876892E-08
-7.564624323483E+00 -1.797897534920863E-06 -2.917448530489193E-08
-7.524624323483E+00 -1.817563058324991E-06 -2.985293826254919E-08
-7.484624323483E+00 -1.837689001123674E-06 -3.055804342359024E-08
-7.444624323483E+00 -1.858293600069136E-06 -3.129140795448916E-08
-7.404624323483E+00 -1.879396201663174E-06 -3.205477722984184E-08
-7.364624323483E+00 -1.901017358373346E-06 -3.285005061695571E-08
-7.324624323483E+00 -1.923178936039571E-06 -3.367929951390008E-08
-7.284624323483E+00 -1.945904233917387E-06 -3.454478802622565E-08
-7.244624323483E+00 -1.969218119236419E-06 -3.544899674252694E-08
-7.204624323483E+00 -1.993147178568507E-06 -3.639465016510271E-08
-7.164624323483E+00 -2.017719888403335E-06 -3.738474846399751E-08
-7.124624323483E+00 -2.042966808237110E-06 -3.842260436854405E-08
-7.084624323483E+00 -2.068920799660114E-06 -3.951188618626951E-08
-7.044624323483E+00 -2.095617275744666E-06 -4.065666815657637E-08
-7.004624323483E+00 -2.123094486225235E-06 -4.186148963214411E-08
-6.964624323483E+00 -2.151393844331830E-06 -4.313142492395683E-08
-6.924624323483E+00 -2.180560303328513E-06 -4.447216608867989E-08
-6.884624323483E+00 -2.210642791595898E-06 -4.589012150967408E-08
-6.844624323483E+00 -2.241694717673872E-06 -4.739253384294662E-08
-6.804624323483E+00 -2.273774559241131E-06 -4.898762183509998E-08
-6.764624323483E+00 -2.306946552772714E-06 -5.068475174382529E-08
-6.724624323483E+00 -2.341281505227162E-06 -5.249464567672609E-08
-6.684624323483E+00 -2.376857754181052E-06 -5.442963626828598E-08
-6.644624323483E+00 -2.413762309520797E-06 -5.650397990177062E-08
-6.604624323483E+00 -2.452092218531478E-06 -5.873424441203347E-08
-6.564624323483E+00 -2.491956207977631E-06 -6.113979225119519E-08
-6.524624323483E+00 -2.533476671304684E-06 -6.374338696461749E-08
-6.484624323483E+00 -2.576792089652956E-06 -6.657196028347711E-08
-6.444624323483E+00 -2.622060001626882E-06 -6.965759027733682E-08
-6.404624323483E+00 -2.669460673197293E-06 -7.303875949591617E-08
-6.364624323483E+00 -2.719201668471015E-06 -7.676198829456367E-08
-6.324624323483E+00 -2.771523590022136E-06 -8.088397641239075E-08
-6.284624323483E+00 -2.826707352411946E-06 -8.547444110740003E-08
-6.244624323483E+00 -2.885083486787493E-06 -9.061992203229596E-08
-6.204624323483E+00 -2.947044165673345E-06 -9.642894622828025E-08
-6.164624323483E+00 -3.013058915379954E-06 -1.030391351808024E-07
-6.124624323483E+00 -3.083695391850357E-06 -1.106271299606791E-07
-6.084624323483E+00 -3.159647206407084E-06 -1.194226783835674E-07
-6.044624323483E+00 -3.241771715879369E-06 -1.297289893601455E-07
-6.004624323483E+00 -3.331142127305223E-06 -1.419527284435670E-07
-5.964624323483E+00 -3.429120530660016E-06 -1.566492010884901E-07
-5.924624323483E+00 -3.537462113534440E-06 -1.745921021729621E-07
-5.884624323483E+00 -3.658466788059860E-06 -1.968841972976142E-07
-5.844624323483E+00 -3.795204469972214E-06 -2.251385222516266E-07
-5.804624323483E+00 -3.951857316821600E-06 -2.617857701377464E-07
-5.764624323483E+00 -4.134251664972343E-06 -3.106174810555935E-07
-5.724624323483E+00 -4.350702859918043E-06 -3.777923582266018E-07
-5.684624323483E+00 -4.613378045058156E-06 -4.738059842076113E-07
-5.644624323483E+00 -4.940485919187531E-06 -6.176021164083490E-07
-5.604624323483E+00 -5.359560289753294E-06 -8.458193112573563E-07
-5.564624323483E+00 -5.910755037614546E-06 -1.235409512620582E-06
-5.524624323483E+00 -6.639046469170572E-06 -1.963694272325400E-06
-5.484624323483E+00 -7.497645893452562E-06 -3.470775704605932E-06
-5.444624323483E+00 -7.691533869681146E-06 -6.721764008939728E-06
-5.404624323483E+00 -3.350066841982323E-06 -1.142628036126620E-05
-5.364624323483E+00  4.631672108245450E-06 -6.402788989285950E-06
-5.324624323483E+00  2.043275719426038E-06 -1.562928290530882E-06
-5.284624323483E+00  3.115210722923874E-07 -9.156036406722121E-07
-5.244624323483E+00 -4.218782934188530E-07 -7.139268791039219E-07
-5.204624323483E+00 -8.560729328957375E-07 -5.486634925549132E-07
-5.164624323483E+00 -1.165075229730069E-06 -4.154435722113780E-07
-5.124624323483E+00 -1.395235317764731E-06 -3.086972318229507E-07
-5.084624323483E+00 -1.564623167680628E-06 -2.185576007063194E-07
-5.044624323483E+00 -1.681207265192554E-06 -1.356687514622566E-07
-5.004624323483E+00 -1.746920170019409E-06 -5.142934973058503E-08
-4.964624323483E+00 -1.758574746188349E-06  4.314068023066187E-08
-4.924624323483E+00 -1.707485209043366E-06  1.591157243950610E-07
-4.884624323483E+00 -1.577992535670314E-06  3.122594441031450E-07
-4.844624323483E+00 -1.344572266181702E-06  5.275328857807013E-07
-4.804624323483E+00 -9.668129085826031E-07  8.478802242912195E-07
-4.764624323483E+00 -3.812917960340060E-07  1.353008626739895E-06
-4.724624323483E+00  5.093470548833045E-07  2.203209220968149E-06
-4.684624323483E+00  1.837610524395941E-06  3.750926138001942E-06
-4.644624323483E+00  3.666429254647533E-06  6.841618080762625E-06
-4.604624323483E+00  5.154309254225162E-06  1.349599682332385E-05
-4.564624323483E+00  5.276574754222454E-07  2.605483569078354E-05
-4.524624323483E+00 -2.050350216316606E-05  3.095190488752869E-05
-4.484624323483E+00 -3.212495944568677E-05  1.735699959085069E-05
-4.444624323483E+00 -3.352027739148485E-05  7.745642971565114E-06
-4.404624323483E+00 -3.427019162361828E-05  1.549839315485611E-06
-4.364624323483E+00 -3.566081048660496E-05 -3.794749244431248E-06
-4.324624323483E+00 -3.845627344321829E-05 -1.030493278564717E-05
-4.284624323483E+00 -4.186245381821106E-05 -2.169830761475345E-05
-4.244624323483E+00 -3.818873222530728E-05 -4.317271295642972E-05
-4.204624323483E+00 -6.449730040146159E-06 -5.994684120979668E-05
-4.164624323483E+00  1.862112817695961E-05 -3.847450214694598E-05
-4.124624323483E+00  1.898789931429612E-05 -1.983444161903523E-05
-4.084624323483E+00  1.465535813634662E-05 -1.065132065646584E-05
-4.044624323483E+00  1.105973387863387E-05 -5.748109489619865E-06
-4.004624323483E+00  8.369640382098565E-06 -1.648140392177973E-06
-3.964624323483E+00  3.610919236366331E-06  1.689655924460288E-06
-3.924624323483E+00  2.358341744148834E-07  2.137961992302984E-06
-3.884624323483E+00 -2.304589170506783E-06  4.155511057556651E-06
-3.844624323483E+00 -8.546418173462526E-06  5.993319371788623E-06
-3.804624323483E+00 -1.410186791193141E-05  2.407676523458130E-06
-3.764624323483E+00 -1.637931187299872E-05 -9.665768792164026E-07
-3.724624323483E+00 -1.840299348221215E-05 -3.285216607156090E-06
-3.684624323483E+00 -2.116690880786015E-05 -5.522722117930046E-06
