#Spectra: 1
Emin______Emax      -1.556414438231428E+01  2.443585561768572E+01
EminPole__EmaxPole  -5.386056642678783E+00  1.849504362440107E+01
dE________Gamma      4.000000000000000E-02  1.000000000000000E-01
Energy               Re[0]                  Im[0]                
-1.556414438231E+01  4.814185145681809E-03  2.403943287736874E-05
-1.552414438231E+01  5.361297439579217E-03  2.634785452339811E-05
-1.548414438231E+01  5.495985867634326E-03  2.699823149001458E-05
-1.544414438231E+01  5.564765671488748E-03  2.738523243873926E-05
-1.540414438231E+01  5.611350448672496E-03  2.768462886052742E-05
-1.536414438231E+01  5.647877498062425E-03  2.794518737313735E-05
-1.532414438231E+01  5.679043000052140E-03  2.818577007856851E-05
-1.528414438231E+01  5.707044264094636E-03  2.841520506991880E-05
-1.524414438231E+01  5.733046217142169E-03  2.863817862792432E-05
-1.520414438231E+01  5.757723980809149E-03  2.885741381112968E-05
-1.516414438231E+01  5.781495928850582E-03  2.907460563506997E-05
-1.512414438231E+01  5.804635287481460E-03  2.929086859853319E-05
-1.508414438231E+01  5.827328205749923E-03  2.950696940388258E-05
-1.504414438231E+01  5.849706026593709E-03  2.972345620609044E-05
-1.500414438231E+01  5.871864205699783E-03  2.994073434045564E-05
-1.496414438231E+01  5.893873905963038E-03  3.015911270705671E-05
-1.492414438231E+01  5.915789374379431E-03  3.037883326791890E-05
-1.488414438231E+01  5.937652788449170E-03  3.060009041759684E-05
-1.484414438231E+01  5.959497529758987E-03  3.082304406310656E-05
-1.480414438231E+01  5.981350449541146E-03  3.104782867445057E-05
-1.476414438231E+01  6.003233470578418E-03  3.127455968383344E-05
-1.472414438231E+01  6.025164741662108E-03  3.150333809838742E-05
-1.468414438231E+01  6.047159483911406E-03  3.173425388338531E-05
-1.464414438231E+01  6.069230620819745E-03  3.196738848306892E-05
-1.460414438231E+01  6.091389253881043E-03  3.220281672617078E-05
-1.456414438231E+01  6.113645026232737E-03  3.244060828557446E-05
-1.452414438231E+01  6.136006403932860E-03  3.268082881032050E-05
-1.448414438231E+01  6.158480895865483E-03  3.292354081371754E-05
-1.444414438231E+01  6.181075227371501E-03  3.316880437776461E-05
-1.440414438231E+01  6.203795478603469E-03  3.341667771773363E-05
-1.436414438231E+01  6.226647195715856E-03  3.366721763923635E-05
-1.432414438231E+01  6.249635480939749E-03  3.392047991187919E-05
-1.428414438231E+01  6.272765066100724E-03  3.417651957766168E-05
-1.424414438231E+01  6.296040373048472E-03  3.443539120793566E-05
-1.420414438231E+01  6.319465563661621E-03  3.469714911953247E-05
-1.416414438231E+01  6.343044581490634E-03  3.496184755827285E-05
-1.412414438231E+01  6.366781186648222E-03  3.522954085627362E-05
-1.408414438231E+01  6.390678985213925E-03  3.550028356809827E-05
-1.404414438231E+01  6.414741454155134E-03  3.577413058974990E-05
-1.400414438231E+01  6.438971962564306E-03  3.605113726369876E-05
-1.396414438231E+01  6.463373789853537E-03  3.633135947250892E-05
-1.392414438231E+01  6.487950141424179E-03  3.661485372313635E-05
-1.388414438231E+01  6.512704162231470E-03  3.690167722358748E-05
-1.384414438231E+01  6.537638948587470E-03  3.719188795331665E-05
-1.380414438231E+01  6.562757558482746E-03  3.748554472850225E-05
-1.376414438231E+01  6.588063020659203E-03  3.778270726314189E-05
-1.372414438231E+01  6.613558342625761E-03  3.808343622675349E-05
-1.368414438231E+01  6.639246517776353E-03  3.838779329933850E-05
-1.364414438231E+01  6.665130531743902E-03  3.869584122416527E-05
-1.360414438231E+01  6.691213368101959E-03  3.900764385884080E-05
-1.356414438231E+01  6.717498013508363E-03  3.932326622507655E-05
-1.352414438231E+01  6.743987462370554E-03  3.964277455749228E-05
-1.348414438231E+01  6.770684721100114E-03  3.996623635175910E-05
-1.344414438231E+01  6.797592812014510E-03  4.029372041234291E-05
-1.340414438231E+01  6.824714776934673E-03  4.062529690007858E-05
-1.336414438231E+01  6.852053680521480E-03  4.096103737977871E-05
-1.332414438231E+01  6.879612613386906E-03  4.130101486805919E-05
-1.328414438231E+01  6.907394695011789E-03  4.164530388154566E-05
-1.324414438231E+01  6.935403076497224E-03  4.199398048561185E-05
-1.320414438231E+01  6.963640943173498E-03  4.234712234378479E-05
-1.316414438231E+01  6.992111517087288E-03  4.270480876794770E-05
-1.312414438231E+01  7.020818059385339E-03  4.306712076945538E-05
-1.308414438231E+01  7.049763872610692E-03  4.343414111128025E-05
-1.304414438231E+01  7.078952302925552E-03  4.380595436129199E-05
-1.300414438231E+01  7.108386742273372E-03  4.418264694677655E-05
-1.296414438231E+01  7.138070630491410E-03  4.456430721029446E-05
-1.292414438231E+01  7.168007457383747E-03  4.495102546697732E-05
-1.288414438231E+01  7.198200764763741E-03  4.534289406335852E-05
-1.284414438231E+01  7.228654148474019E-03  4.574000743783420E-05
-1.280414438231E+01  7.259371260391569E-03  4.614246218285188E-05
-1.276414438231E+01  7.290355810424328E-03  4.655035710892180E-05
-1.272414438231E+01  7.321611568505898E-03  4.696379331055045E-05
-1.268414438231E+01  7.353142366593586E-03  4.738287423419194E-05
-1.264414438231E+01  7.384952100675447E-03  4.780770574832155E-05
-1.260414438231E+01  7.417044732791139E-03  4.823839621573240E-05
-1.256414438231E+01  7.449424293071101E-03  4.867505656816160E-05
-1.252414438231E+01  7.482094881798662E-03  4.911780038335466E-05
-1.248414438231E+01  7.515060671498958E-03  4.956674396467994E-05
-1.244414438231E+01  7.548325909059011E-03  5.002200642341011E-05
-1.240414438231E+01  7.581894917882407E-03  5.048370976378925E-05
-1.236414438231E+01  7.615772100082620E-03  5.095197897101087E-05
-1.232414438231E+01  7.649961938718429E-03  5.142694210223709E-05
-1.228414438231E+01  7.684469000074960E-03  5.190873038079200E-05
-1.224414438231E+01  7.719297935994004E-03  5.239747829367082E-05
-1.220414438231E+01  7.754453486256959E-03  5.289332369250936E-05
-1.216414438231E+01  7.789940481023844E-03  5.339640789816941E-05
-1.212414438231E+01  7.825763843331892E-03  5.390687580909561E-05
-1.208414438231E+01  7.861928591657283E-03  5.442487601361382E-05
-1.204414438231E+01  7.898439842543212E-03  5.495056090634335E-05
-1.200414438231E+01  7.935302813298318E-03  5.548408680890600E-05
-1.196414438231E+01  7.972522824768504E-03  5.602561409512345E-05
-1.192414438231E+01  8.010105304186525E-03  5.657530732090368E-05
-1.188414438231E+01  8.048055788102295E-03  5.713333535902458E-05
-1.184414438231E+01  8.086379925398545E-03  5.769987153903882E-05
-1.180414438231E+01  8.125083480395191E-03  5.827509379252700E-05
-1.176414438231E+01  8.164172336046972E-03  5.885918480394593E-05
-1.172414438231E+01  8.203652497238029E-03  5.945233216732524E-05
-1.168414438231E+01  8.243530094178468E-03  6.005472854908117E-05
-1.164414438231E+01  8.283811385906611E-03  6.066657185723052E-05
-1.160414438231E+01  8.324502763902357E-03  6.128806541730009E-05
-1.156414438231E+01  8.365610755815928E-03  6.191941815524565E-05
-1.152414438231E+01  8.407142029317419E-03  6.256084478770849E-05
-1.148414438231E+01  8.449103396072076E-03  6.321256601995696E-05
-1.144414438231E+01  8.491501815847107E-03  6.387480875187640E-05
-1.140414438231E+01  8.534344400755412E-03  6.454780629239319E-05
-1.136414438231E+01  8.577638419642234E-03  6.523179858274076E-05
-1.132414438231E+01  8.621391302621222E-03  6.592703242899119E-05
-1.128414438231E+01  8.665610645765924E-03  6.663376174430766E-05
-1.124414438231E+01  8.710304215963718E-03  6.735224780139398E-05
-1.120414438231E+01  8.755479955939423E-03  6.808275949564354E-05
-1.116414438231E+01  8.801145989455812E-03  6.882557361952168E-05
-1.112414438231E+01  8.847310626698725E-03  6.958097514874225E-05
-1.108414438231E+01  8.893982369855171E-03  7.034925754083429E-05
-1.104414438231E+01  8.941169918892889E-03  7.113072304672806E-05
-1.100414438231E+01  8.988882177550315E-03  7.192568303602531E-05
-1.096414438231E+01  9.037128259546313E-03  7.273445833665954E-05
-1.092414438231E+01  9.085917495019762E-03  7.355737958969317E-05
-1.088414438231E+01  9.135259437209204E-03  7.439478762004197E-05
-1.084414438231E+01  9.185163869383652E-03  7.524703382396649E-05
-1.080414438231E+01  9.235640812036027E-03  7.611448057421901E-05
-1.076414438231E+01  9.286700530351199E-03  7.699750164379151E-05
-1.072414438231E+01  9.338353541961733E-03  7.789648264926413E-05
-1.068414438231E+01  9.390610625004320E-03  7.881182151482134E-05
-1.064414438231E+01  9.443482826491517E-03  7.974392895806328E-05
-1.060414438231E+01  9.496981471013440E-03  8.069322899881620E-05
-1.056414438231E+01  9.551118169785232E-03  8.166015949221970E-05
-1.052414438231E+01  9.605904830057022E-03  8.264517268744992E-05
-1.048414438231E+01  9.661353664903864E-03  8.364873581352705E-05
-1.044414438231E+01  9.717477203414237E-03  8.467133169375021E-05
-1.040414438231E+01  9.774288301296650E-03  8.571345939040066E-05
-1.036414438231E+01  9.831800151925302E-03  8.677563488146876E-05
-1.032414438231E+01  9.890026297846284E-03  8.785839177126892E-05
-1.028414438231E+01  9.948980642768253E-03  8.896228203694261E-05
-1.024414438231E+01  1.000867746406125E-02  9.008787681297724E-05
-1.020414438231E+01  1.006913142579063E-02  9.123576721601586E-05
-1.016414438231E+01  1.013035759231298E-02  9.240656521239647E-05
-1.012414438231E+01  1.019237144246375E-02  9.360090453101615E-05
-1.008414438231E+01  1.025518888436740E-02  9.481944162431725E-05
-1.004414438231E+01  1.031882627090331E-02  9.606285668037038E-05
-1.000414438231E+01  1.038330041586223E-02  9.733185468925873E-05
-9.964144382314E+00  1.044862861083051E-02  9.862716656719069E-05
-9.924144382314E+00  1.051482864284193E-02  9.994955034202246E-05
-9.884144382314E+00  1.058191881283901E-02  1.012997924041408E-04
-9.844144382314E+00  1.064991795498875E-02  1.026787088269512E-04
-9.804144382314E+00  1.071884545690053E-02  1.040871467615361E-04
-9.764144382314E+00  1.078872128079704E-02  1.055259859103924E-04
-9.724144382314E+00  1.085956598569254E-02  1.069961400855357E-04
-9.684144382314E+00  1.093140075063632E-02  1.084985588566642E-04
-9.644144382314E+00  1.100424739908352E-02  1.100342292955239E-04
-9.604144382314E+00  1.107812842445874E-02  1.116041778230980E-04
-9.564144382314E+00  1.115306701698350E-02  1.132094721667726E-04
-9.524144382314E+00  1.122908709184352E-02  1.148512234352076E-04
-9.484144382314E+00  1.130621331877570E-02  1.165305883192690E-04
-9.444144382314E+00  1.138447115316238E-02  1.182487714280678E-04
-9.404144382314E+00  1.146388686872527E-02  1.200070277698960E-04
-9.364144382314E+00  1.154448759191913E-02  1.218066653886872E-04
-9.324144382314E+00  1.162630133813172E-02  1.236490481675133E-04
-9.284144382314E+00  1.170935704980538E-02  1.255355988116289E-04
-9.244144382314E+00  1.179368463660365E-02  1.274678020246606E-04
-9.204144382314E+00  1.187931501775616E-02  1.294472078927249E-04
-9.164144382314E+00  1.196628016672439E-02  1.314754354925784E-04
-9.124144382314E+00  1.205461315834372E-02  1.335541767413445E-04
-9.084144382314E+00  1.214434821860731E-02  1.356852005069593E-04
-9.044144382314E+00  1.223552077727190E-02  1.378703570002344E-04
-9.004144382314E+00  1.232816752348017E-02  1.401115824713793E-04
-8.964144382314E+00  1.242232646460897E-02  1.424109042359774E-04
-8.924144382314E+00  1.251803698857122E-02  1.447704460577929E-04
-8.884144382314E+00  1.261533992981809E-02  1.471924339184166E-04
-8.844144382314E+00  1.271427763930802E-02  1.496792022067013E-04
-8.804144382314E+00  1.281489405873297E-02  1.522332003641857E-04
-8.764144382314E+00  1.291723479931712E-02  1.548570000263393E-04
-8.724144382314E+00  1.302134722553040E-02  1.575533027034921E-04
-8.684144382314E+00  1.312728054409087E-02  1.603249480498282E-04
-8.644144382314E+00  1.323508589866189E-02  1.631749227738575E-04
-8.604144382314E+00  1.334481647068893E-02  1.661063702494127E-04
-8.564144382314E+00  1.345652758686078E-02  1.691226008925449E-04
-8.524144382314E+00  1.357027683372549E-02  1.722271033767648E-04
-8.484144382314E+00  1.368612418004263E-02  1.754235567670572E-04
-8.444144382314E+00  1.380413210750842E-02  1.787158436620512E-04
-8.404144382314E+00  1.392436575055308E-02  1.821080644438518E-04
-8.364144382314E+00  1.404689304597958E-02  1.856045527464387E-04
-8.324144382314E+00  1.417178489328881E-02  1.892098922664660E-04
-8.284144382314E+00  1.429911532662479E-02  1.929289350549207E-04
-8.244144382314E+00  1.442896169936804E-02  1.967668214447100E-04
-8.204144382314E+00  1.456140488251496E-02  2.007290017881274E-04
-8.164144382314E+00  1.469652947810221E-02  2.048212601996697E-04
-8.124144382314E+00  1.483442404907137E-02  2.090497405242242E-04
-8.084144382314E+00  1.497518136712411E-02  2.134209747787419E-04
-8.044144382314E+00  1.511889868029021E-02  2.179419143476792E-04
-8.004144382314E+00  1.526567800212882E-02  2.226199642494522E-04
-7.964144382314E+00  1.541562642470421E-02  2.274630208336787E-04
-7.924144382314E+00  1.556885645773048E-02  2.324795133180103E-04
-7.884144382314E+00  1.572548639656603E-02  2.376784496300606E-04
-7.844144382314E+00  1.588564072206535E-02  2.430694670855986E-04
-7.804144382314E+00  1.604945053566928E-02  2.486628885104639E-04
-7.764144382314E+00  1.621705403354133E-02  2.544697845024435E-04
-7.724144382314E+00  1.638859702404743E-02  2.605020426330063E-04
-7.684144382314E+00  1.656423349343992E-02  2.667724445100866E-04
-7.644144382314E+00  1.674412622525428E-02  2.732947517654265E-04
-7.604144382314E+00  1.692844747967808E-02  2.800838021974808E-04
-7.564144382314E+00  1.711737974001793E-02  2.871556174985612E-04
-7.524144382314E+00  1.731111653439999E-02  2.945275242288334E-04
-7.484144382314E+00  1.750986334201263E-02  3.022182899776308E-04
-7.444144382314E+00  1.771383859457128E-02  3.102482769834428E-04
-7.404144382314E+00  1.792327478529223E-02  3.186396158794543E-04
-7.364144382314E+00  1.813841969954856E-02  3.274164027058362E-04
-7.324144382314E+00  1.835953778360675E-02  3.366049229008472E-04
-7.284144382314E+00  1.858691167047271E-02  3.462339066724721E-04
-7.244144382314E+00  1.882084388499837E-02  3.563348209886159E-04
-7.204144382314E+00  1.906165875411699E-02  3.669422044421614E-04
-7.164144382314E+00  1.930970455252055E-02  3.780940524921334E-04
-7.124144382314E+00  1.956535591942340E-02  3.898322621109463E-04
-7.084144382314E+00  1.982901658848113E-02  4.022031467533377E-04
-7.044144382314E+00  2.010112248070465E-02  4.152580348994188E-04
-7.004144382314E+00  2.038214521965049E-02  4.290539683345301E-04
-6.964144382314E+00  2.067259613969338E-02  4.436545199715270E-04
-6.924144382314E+00  2.097303087231786E-02  4.591307556057138E-04
-6.884144382314E+00  2.128405461278109E-02  4.755623697947440E-04
-6.844144382314E+00  2.160632819107153E-02  4.930390334418632E-04
-6.804144382314E+00  2.194057509795758E-02  5.116620001214681E-04
-6.764144382314E+00  2.228758965057276E-02  5.315460303822717E-04
-6.724144382314E+00  2.264824652438753E-02  5.528217090937256E-04
-6.684144382314E+00  2.302351193218468E-02  5.756382515962218E-04
-6.644144382314E+00  2.341445679927069E-02  6.001669216743833E-04
-6.604144382314E+00  2.382227237234057E-02  6.266052205649919E-04
-6.564144382314E+00  2.424828881356895E-02  6.551820546704739E-04
-6.524144382314E+00  2.469399748042437E-02  6.861641551155736E-04
-6.484144382314E+00  2.516107778756436E-02  7.198641115687114E-04
-6.444144382314E+00  2.565142980700196E-02  7.566505057484454E-04
-6.404144382314E+00  2.616721411058301E-02  7.969608013077554E-04
-6.364144382314E+00  2.671090082904106E-02  8.413178880283981E-04
-6.324144382314E+00  2.728533054414412E-02  8.903515222365788E-04
-6.284144382314E+00  2.789379051732661E-02  9.448264023164042E-04
-6.244144382314E+00  2.854011099732880E-02  1.005679346413833E-03
-6.204144382314E+00  2.922878810242453E-02  1.074069122896646E-03
-6.164144382314E+00  2.996514228636672E-02  1.151444122987376E-03
-6.124144382314E+00  3.075552505304458E-02  1.239635588675327E-03
-6.084144382314E+00  3.160759198426885E-02  1.340988071781289E-03
-6.044144382314E+00  3.253066825137872E-02  1.458545156514476E-03
-6.004144382314E+00  3.353624516647489E-02  1.596318915191345E-03
-5.964144382314E+00  3.463866560723185E-02  1.759689152431883E-03
-5.924144382314E+00  3.585608675230809E-02  1.956008980884075E-03
-5.884144382314E+00  3.721185814680220E-02  2.195547833575878E-03
-5.844144382314E+00  3.873653511678879E-02  2.493004198139893E-03
-5.804144382314E+00  4.047088580425149E-02  2.870015643286500E-03
-5.764144382314E+00  4.247048669704728E-02  3.359488064344309E-03
-5.724144382314E+00  4.481290773887645E-02  4.013404440286896E-03
-5.684144382314E+00  4.760916557678023E-02  4.917663173002704E-03
-5.644144382314E+00  5.102210947450819E-02  6.222048796210093E-03
-5.604144382314E+00  5.529498023989624E-02  8.205249761660927E-03
-5.564144382314E+00  6.078785808045037E-02  1.142793976934733E-02
-5.524144382314E+00  6.797134417132362E-02  1.712524628609337E-02
-5.484144382314E+00  7.699774123824796E-02  2.826089721756738E-02
-5.444144382314E+00  8.445735682451511E-02  5.170745969433290E-02
-5.404144382314E+00  6.939128107517199E-02  9.303141897234374E-02
-5.364144382314E+00  7.625090332019083E-03  1.020947400596015E-01
-5.324144382314E+00 -1.955430175085367E-02  6.099864692205607E-02
-5.284144382314E+00 -1.456725534924569E-02  3.311952768607131E-02
-5.244144382314E+00 -5.012690978528912E-03  1.985240851817545E-02
-5.204144382314E+00  3.095577031491153E-03  1.333144500551870E-02
-5.164144382314E+00  9.531516054491559E-03  9.830668371776440E-03
-5.124144382314E+00  1.477016469766421E-02  7.816455739478473E-03
-5.084144382314E+00  1.921823234910053E-02  6.613330058864554E-03
-5.044144382314E+00  2.316297868070554E-02  5.898019478608800E-03
-5.004144382314E+00  2.680775524990037E-02  5.506499756238710E-03
-4.964144382314E+00  3.030520867283776E-02  5.354968200723045E-03
-4.924144382314E+00  3.378079973204052E-02  5.405940204866047E-03
-4.884144382314E+00  3.735005575656725E-02  5.654847103695491E-03
-4.844144382314E+00  4.113339922639765E-02  6.128781259738252E-03
-4.804144382314E+00  4.527194517864392E-02  6.897051390002048E-03
-4.764144382314E+00  4.994738727547327E-02  8.101261047809038E-03
-4.724144382314E+00  5.540670641337730E-02  1.002936528139451E-02
-4.684144382314E+00  6.197257373641903E-02  1.330490108886358E-02
-4.644144382314E+00  6.988491626632756E-02  1.939451454447626E-02
-4.604144382314E+00  7.796712662704834E-02  3.177518561547466E-02
-4.564144382314E+00  7.697743578819856E-02  5.483157738824578E-02
-4.524144382314E+00  4.854374987483155E-02  6.715068091860547E-02
-4.484144382314E+00  3.592075161564631E-02  4.718571850106767E-02
-4.444144382314E+00  4.381068504000003E-02  3.502038684933521E-02
-4.404144382314E+00  5.608638939610130E-02  3.138063927779149E-02
-4.364144382314E+00  7.179034821788112E-02  3.473766414693077E-02
-4.324144382314E+00  9.036672605353445E-02  4.778503144928865E-02
-4.284144382314E+00  1.090461454005732E-01  7.888412262482115E-02
-4.244144382314E+00  1.049650639658704E-01  1.424973239035720E-01
-4.204144382314E+00  1.454531839084842E-02  1.933293809941961E-01
-4.164144382314E+00 -5.662109519161912E-02  1.280960478071309E-01
-4.124144382314E+00 -5.176387511775023E-02  7.222500416755008E-02
-4.084144382314E+00 -3.188268866112913E-02  4.739867440760289E-02
-4.044144382314E+00 -1.442227681332980E-02  3.992305586344846E-02
-4.004144382314E+00 -5.560615826376934E-03  4.152028391810515E-02
-3.964144382314E+00 -4.906863632471598E-03  3.886078527892665E-02
-3.924144382314E+00  1.965300955420107E-03  3.269217400656364E-02
-3.884144382314E+00  1.045238984480301E-02  3.426494998177938E-02
-3.844144382314E+00  9.398492291950684E-03  3.724787794723167E-02
-3.804144382314E+00  1.104245847192531E-02  2.921610882369851E-02
-3.764144382314E+00  2.129087036402907E-02  2.389584291161462E-02
-3.724144382314E+00  3.404107193964322E-02  2.336608824264487E-02
-3.684144382314E+00  4.836425791741612E-02  2.654307780137139E-02
