#Spectra: 1
Emin______Emax      -1.556462432348325E+01  2.443537567651675E+01
EminPole__EmaxPole  -5.383930493629776E+00  1.849368854576111E+01
dE________Gamma      4.000000000000000E-02  1.000000000000000E-01
Energy               Re[0]                  Im[0]                
-1.556462432348E+01  4.081004034513512E-03  2.013296599407532E-05
-1.552462432348E+01  4.544642544946913E-03  2.206584259751638E-05
-1.548462432348E+01  4.658641552765849E-03  2.261007946754339E-05
-1.544462432348E+01  4.716763020994248E-03  2.293373068087159E-05
-1.540462432348E+01  4.756066058262713E-03  2.318400829284465E-05
-1.536462432348E+01  4.786840430252334E-03  2.340175562527706E-05
-1.532462432348E+01  4.813067508283289E-03  2.360277033681177E-05
-1.528462432348E+01  4.836610163104670E-03  2.379444635141289E-05
-1.524462432348E+01  4.858456020638552E-03  2.398070870562146E-05
-1.520462432348E+01  4.879177450136620E-03  2.416383817443619E-05
-1.516462432348E+01  4.899129148049331E-03  2.434525451147793E-05
-1.512462432348E+01  4.918542752412239E-03  2.452589126706230E-05
-1.508462432348E+01  4.937576075091158E-03  2.470639070005921E-05
-1.504462432348E+01  4.956340461492047E-03  2.488721202924874E-05
-1.500462432348E+01  4.974916830271368E-03  2.506869485871920E-05
-1.496462432348E+01  4.993365503376548E-03  2.525109802718113E-05
-1.492462432348E+01  5.011732460387019E-03  2.543462431350193E-05
-1.488462432348E+01  5.030053447463993E-03  2.561943666079269E-05
-1.484462432348E+01  5.048356752828447E-03  2.580566913179168E-05
-1.480462432348E+01  5.066665127609352E-03  2.599343448942835E-05
-1.476462432348E+01  5.084997144024821E-03  2.618282955678604E-05
-1.472462432348E+01  5.103368174200581E-03  2.637393908078873E-05
-1.468462432348E+01  5.121791107735478E-03  2.656683856610886E-05
-1.464462432348E+01  5.140276885900113E-03  2.676159638678362E-05
-1.460462432348E+01  5.158834904910118E-03  2.695827538248306E-05
-1.456462432348E+01  5.177473324253388E-03  2.715693408134797E-05
-1.452462432348E+01  5.196199305182226E-03  2.735762764840501E-05
-1.448462432348E+01  5.215019197170537E-03  2.756040862971216E-05
-1.444462432348E+01  5.233938685135824E-03  2.776532754266190E-05
-1.440462432348E+01  5.252962906751728E-03  2.797243334916841E-05
-1.436462432348E+01  5.272096546727893E-03  2.818177383881345E-05
-1.432462432348E+01  5.291343913186572E-03  2.839339594213939E-05
-1.428462432348E+01  5.310709000000608E-03  2.860734598929720E-05
-1.424462432348E+01  5.330195538034036E-03  2.882366992562197E-05
-1.420462432348E+01  5.349807037543666E-03  2.904241349302164E-05
-1.416462432348E+01  5.369546823490375E-03  2.926362238405943E-05
-1.412462432348E+01  5.389418065125166E-03  2.948734237410372E-05
-1.408462432348E+01  5.409423800923604E-03  2.971361943577194E-05
-1.404462432348E+01  5.429566959718842E-03  2.994249983901981E-05
-1.400462432348E+01  5.449850378710944E-03  3.017403023954929E-05
-1.396462432348E+01  5.470276818896503E-03  3.040825775768423E-05
-1.392462432348E+01  5.490848978357334E-03  3.064523004945079E-05
-1.388462432348E+01  5.511569503764493E-03  3.088499537127661E-05
-1.384462432348E+01  5.532441000388328E-03  3.112760263946634E-05
-1.380462432348E+01  5.553466040853027E-03  3.137310148540719E-05
-1.376462432348E+01  5.574647172832093E-03  3.162154230729359E-05
-1.372462432348E+01  5.595986925847622E-03  3.187297631903131E-05
-1.368462432348E+01  5.617487817308584E-03  3.212745559687183E-05
-1.364462432348E+01  5.639152357901443E-03  3.238503312424379E-05
-1.360462432348E+01  5.660983056427760E-03  3.264576283517737E-05
-1.356462432348E+01  5.682982424168865E-03  3.290969965666025E-05
-1.352462432348E+01  5.705152978845030E-03  3.317689955021506E-05
-1.348462432348E+01  5.727497248226863E-03  3.344741955295317E-05
-1.344462432348E+01  5.750017773447269E-03  3.372131781832264E-05
-1.340462432348E+01  5.772717112056226E-03  3.399865365674601E-05
-1.336462432348E+01  5.795597840854116E-03  3.427948757632016E-05
-1.332462432348E+01  5.818662558534386E-03  3.456388132373129E-05
-1.328462432348E+01  5.841913888162436E-03  3.485189792552553E-05
-1.324462432348E+01  5.865354479513858E-03  3.514360172986147E-05
-1.320462432348E+01  5.888987011292034E-03  3.543905844886152E-05
-1.316462432348E+01  5.912814193243028E-03  3.573833520167060E-05
-1.312462432348E+01  5.936838768182926E-03  3.604150055832416E-05
-1.308462432348E+01  5.961063513951431E-03  3.634862458452173E-05
-1.304462432348E+01  5.985491245303616E-03  3.665977888739879E-05
-1.300462432348E+01  6.010124815750753E-03  3.697503666238438E-05
-1.296462432348E+01  6.034967119359285E-03  3.729447274123267E-05
-1.292462432348E+01  6.060021092517005E-03  3.761816364131182E-05
-1.288462432348E+01  6.085289715673554E-03  3.794618761623476E-05
-1.284462432348E+01  6.110776015062702E-03  3.827862470791439E-05
-1.280462432348E+01  6.136483064412287E-03  3.861555680012702E-05
-1.276462432348E+01  6.162413986647565E-03  3.895706767366725E-05
-1.272462432348E+01  6.188571955593723E-03  3.930324306317980E-05
-1.268462432348E+01  6.214960197681640E-03  3.965417071575383E-05
-1.264462432348E+01  6.241581993662119E-03  4.000994045136747E-05
-1.260462432348E+01  6.268440680332426E-03  4.037064422527341E-05
-1.256462432348E+01  6.295539652279194E-03  4.073637619241615E-05
-1.252462432348E+01  6.322882363641464E-03  4.110723277397833E-05
-1.248462432348E+01  6.350472329897380E-03  4.148331272615206E-05
-1.244462432348E+01  6.378313129678023E-03  4.186471721123795E-05
-1.240462432348E+01  6.406408406611718E-03  4.225154987117694E-05
-1.236462432348E+01  6.434761871201830E-03  4.264391690362416E-05
-1.232462432348E+01  6.463377302741375E-03  4.304192714067794E-05
-1.228462432348E+01  6.492258551267408E-03  4.344569213038312E-05
-1.224462432348E+01  6.521409539558288E-03  4.385532622113006E-05
-1.220462432348E+01  6.550834265176610E-03  4.427094664908062E-05
-1.216462432348E+01  6.580536802561153E-03  4.469267362875277E-05
-1.212462432348E+01  6.610521305170423E-03  4.512063044690541E-05
-1.208462432348E+01  6.640792007681252E-03  4.555494355986980E-05
-1.204462432348E+01  6.671353228245028E-03  4.599574269448123E-05
-1.200462432348E+01  6.702209370805058E-03  4.644316095277174E-05
-1.196462432348E+01  6.733364927477897E-03  4.689733492059226E-05
-1.192462432348E+01  6.764824481002074E-03  4.735840478034126E-05
-1.188462432348E+01  6.796592707257338E-03  4.782651442798505E-05
-1.184462432348E+01  6.828674377857791E-03  4.830181159456361E-05
-1.180462432348E+01  6.861074362822532E-03  4.878444797238841E-05
-1.176462432348E+01  6.893797633327176E-03  4.927457934614434E-05
-1.172462432348E+01  6.926849264540009E-03  4.977236572912300E-05
-1.168462432348E+01  6.960234438546689E-03  5.027797150482396E-05
-1.164462432348E+01  6.993958447367105E-03  5.079156557417427E-05
-1.160462432348E+01  7.028026696068972E-03  5.131332150862774E-05
-1.156462432348E+01  7.062444705982037E-03  5.184341770942144E-05
-1.152462432348E+01  7.097218118017298E-03  5.238203757328044E-05
-1.148462432348E+01  7.132352696096213E-03  5.292936966487717E-05
-1.144462432348E+01  7.167854330694148E-03  5.348560789637011E-05
-1.140462432348E+01  7.203729042503674E-03  5.405095171436046E-05
-1.136462432348E+01  7.239982986222285E-03  5.462560629462949E-05
-1.132462432348E+01  7.276622454470518E-03  5.520978274503423E-05
-1.128462432348E+01  7.313653881845908E-03  5.580369831696188E-05
-1.124462432348E+01  7.351083849118794E-03  5.640757662576840E-05
-1.120462432348E+01  7.388919087576223E-03  5.702164788064691E-05
-1.116462432348E+01  7.427166483520531E-03  5.764614912439743E-05
-1.112462432348E+01  7.465833082929319E-03  5.828132448360078E-05
-1.108462432348E+01  7.504926096284266E-03  5.892742542972208E-05
-1.104462432348E+01  7.544452903576026E-03  5.958471105170548E-05
-1.100462432348E+01  7.584421059493431E-03  6.025344834065098E-05
-1.096462432348E+01  7.624838298804948E-03  6.093391248720073E-05
-1.092462432348E+01  7.665712541941613E-03  6.162638719230011E-05
-1.088462432348E+01  7.707051900790135E-03  6.233116499203746E-05
-1.084462432348E+01  7.748864684706250E-03  6.304854759730826E-05
-1.080462432348E+01  7.791159406758330E-03  6.377884624909898E-05
-1.076462432348E+01  7.833944790211768E-03  6.452238209022875E-05
-1.072462432348E+01  7.877229775265896E-03  6.527948655444456E-05
-1.068462432348E+01  7.921023526055036E-03  6.605050177381569E-05
-1.064462432348E+01  7.965335437926029E-03  6.683578100544027E-05
-1.060462432348E+01  8.010175145006021E-03  6.763568907853167E-05
-1.056462432348E+01  8.055552528073955E-03  6.845060286302930E-05
-1.052462432348E+01  8.101477722750864E-03  6.928091176094508E-05
-1.048462432348E+01  8.147961128024350E-03  7.012701822174212E-05
-1.044462432348E+01  8.195013415123699E-03  7.098933828311877E-05
-1.040462432348E+01  8.242645536763312E-03  7.186830213867147E-05
-1.036462432348E+01  8.290868736772415E-03  7.276435473399901E-05
-1.032462432348E+01  8.339694560130926E-03  7.367795639292165E-05
-1.028462432348E+01  8.389134863431940E-03  7.460958347559892E-05
-1.024462432348E+01  8.439201825792693E-03  7.555972907045138E-05
-1.020462432348E+01  8.489907960237129E-03  7.652890372192613E-05
-1.016462432348E+01  8.541266125574759E-03  7.751763619628234E-05
-1.012462432348E+01  8.593289538801728E-03  7.852647428773040E-05
-1.008462432348E+01  8.645991788051874E-03  7.955598566741861E-05
-1.004462432348E+01  8.699386846126984E-03  8.060675877794547E-05
-1.000462432348E+01  8.753489084637588E-03  8.167940377625930E-05
-9.964624323483E+00  8.808313288787520E-03  8.277455352802446E-05
-9.924624323483E+00  8.863874672837410E-03  8.389286465675028E-05
-9.884624323483E+00  8.920188896284490E-03  8.503501865123126E-05
-9.844624323483E+00  8.977272080799400E-03  8.620172303510214E-05
-9.804624323483E+00  9.035140827961693E-03  8.739371260260746E-05
-9.764624323483E+00  9.093812237840252E-03  8.861175072499178E-05
-9.724624323483E+00  9.153303928466630E-03  8.985663073225419E-05
-9.684624323483E+00  9.213634056253198E-03  9.112917737538519E-05
-9.644624323483E+00  9.274821337411580E-03  9.243024837459609E-05
-9.604624323483E+00  9.336885070429877E-03  9.376073605949551E-05
-9.564624323483E+00  9.399845159672652E-03  9.512156910763531E-05
-9.524624323483E+00  9.463722140170482E-03  9.651371438837528E-05
-9.484624323483E+00  9.528537203672034E-03  9.793817891957521E-05
-9.444624323483E+00  9.594312226035935E-03  9.939601194524442E-05
-9.404624323483E+00  9.661069796045765E-03  1.008883071429584E-04
-9.364624323483E+00  9.728833245737369E-03  1.024162049705903E-04
-9.324624323483E+00  9.797626682334415E-03  1.039808951627152E-04
-9.284624323483E+00  9.867475021895090E-03  1.055836193879446E-04
-9.244624323483E+00  9.938404024780877E-03  1.072256740794140E-04
-9.204624323483E+00  1.001044033306662E-02  1.089084134517323E-04
-9.164624323483E+00  1.008361151002016E-02  1.106332527188775E-04
-9.124624323483E+00  1.015794608179032E-02  1.124016715288288E-04
-9.084624323483E+00  1.023347358145238E-02  1.142152176321567E-04
-9.044624323483E+00  1.031022459557238E-02  1.160755108033809E-04
-9.004624323483E+00  1.038823081346463E-02  1.179842470356537E-04
-8.964624323483E+00  1.046752507933128E-02  1.199432030312585E-04
-8.924624323483E+00  1.054814144748743E-02  1.219542410125653E-04
-8.884624323483E+00  1.063011524089391E-02  1.240193138804473E-04
-8.844624323483E+00  1.071348311323677E-02  1.261404707498174E-04
-8.804624323483E+00  1.079828311481486E-02  1.283198628948500E-04
-8.764624323483E+00  1.088455476251823E-02  1.305597501397406E-04
-8.724624323483E+00  1.097233911420512E-02  1.328625077344653E-04
-8.684624323483E+00  1.106167884781392E-02  1.352306337590684E-04
-8.644624323483E+00  1.115261834557446E-02  1.376667571045300E-04
-8.604624323483E+00  1.124520378371901E-02  1.401736460833220E-04
-8.564624323483E+00  1.133948322812823E-02  1.427542177284475E-04
-8.524624323483E+00  1.143550673638929E-02  1.454115478461070E-04
-8.484624323483E+00  1.153332646678827E-02  1.481488818942961E-04
-8.444624323483E+00  1.163299679480965E-02  1.509696467676766E-04
-8.404624323483E+00  1.173457443777152E-02  1.538774635781335E-04
-8.364624323483E+00  1.183811858828701E-02  1.568761615306631E-04
-8.324624323483E+00  1.194369105731306E-02  1.599697930058061E-04
-8.284624323483E+00  1.205135642762375E-02  1.631626499729487E-04
-8.244624323483E+00  1.216118221863354E-02  1.664592818736799E-04
-8.204624323483E+00  1.227323906359207E-02  1.698645151312894E-04
-8.164624323483E+00  1.238760090028184E-02  1.733834744617352E-04
-8.124624323483E+00  1.250434517647193E-02  1.770216061833539E-04
-8.084624323483E+00  1.262355307151985E-02  1.807847037476812E-04
-8.044624323483E+00  1.274530973566856E-02  1.846789357424710E-04
-8.004624323483E+00  1.286970454876132E-02  1.887108766509859E-04
-7.964624323483E+00  1.299683140029704E-02  1.928875406895395E-04
-7.924624323483E+00  1.312678899297354E-02  1.972164190889847E-04
-7.884624323483E+00  1.325968117212306E-02  2.017055212363119E-04
-7.844624323483E+00  1.339561728373625E-02  2.063634201509739E-04
-7.804624323483E+00  1.353471256410474E-02  2.111993028383767E-04
-7.764624323483E+00  1.367708856449256E-02  2.162230261418821E-04
-7.724624323483E+00  1.382287361468470E-02  2.214451788066930E-04
-7.684624323483E+00  1.397220332976199E-02  2.268771505766096E-04
-7.644624323483E+00  1.412522116503047E-02  2.325312092708076E-04
-7.604624323483E+00  1.428207902469974E-02  2.384205869361529E-04
-7.564624323483E+00  1.444293793067794E-02  2.445595763454755E-04
-7.524624323483E+00  1.460796875874676E-02  2.509636393191162E-04
-7.484624323483E+00  1.477735305042295E-02  2.576495285924668E-04
-7.444624323483E+00  1.495128391002949E-02  2.646354252442812E-04
-7.404624323483E+00  1.512996699792511E-02  2.719410940492734E-04
-7.364624323483E+00  1.531362163251083E-02  2.795880595363288E-04
-7.324624323483E+00  1.550248201560380E-02  2.875998060359989E-04
-7.284624323483E+00  1.569679859809276E-02  2.960020056072134E-04
-7.244624323483E+00  1.589683960555007E-02  3.048227784675549E-04
-7.204624323483E+00  1.610289274675355E-02  3.140929914446594E-04
-7.164624323483E+00  1.631526713199261E-02  3.238466010572135E-04
-7.124624323483E+00  1.653429543272594E-02  3.341210491720205E-04
-7.084624323483E+00  1.676033631981297E-02  3.449577208321384E-04
-7.044624323483E+00  1.699377722436623E-02  3.564024758916762E-04
-7.004624323483E+00  1.723503747356304E-02  3.685062686310836E-04
-6.964624323483E+00  1.748457186385458E-02  3.813258727001193E-04
-6.924624323483E+00  1.774287474638589E-02  3.949247327243941E-04
-6.884624323483E+00  1.801048471466986E-02  4.093739689526774E-04
-6.844624323483E+00  1.828799000340030E-02  4.247535677314380E-04
-6.804624323483E+00  1.857603473072299E-02  4.411537987913592E-04
-6.764624323483E+00  1.887532614560111E-02  4.586769108849582E-04
-6.724624323483E+00  1.918664307879386E-02  4.774391709941548E-04
-6.684624323483E+00  1.951084584266951E-02  4.975733301838465E-04
-6.644624323483E+00  1.984888788458940E-02  5.192316226633746E-04
-6.604624323483E+00  2.020182957496989E-02  5.425894357520353E-04
-6.564624323483E+00  2.057085460984089E-02  5.678498300653718E-04
-6.524624323483E+00  2.095728963629004E-02  5.952491453733069E-04
-6.484624323483E+00  2.136262787799676E-02  6.250640040062513E-04
-6.444624323483E+00  2.178855776163744E-02  6.576201287813207E-04
-6.404624323483E+00  2.223699784372505E-02  6.933035384913025E-04
-6.364624323483E+00  2.271013974062196E-02  7.325748893400786E-04
-6.324624323483E+00  2.321050131408521E-02  7.759880229011019E-04
-6.284624323483E+00  2.374099312219967E-02  8.242142024121443E-04
-6.244624323483E+00  2.430500220174227E-02  8.780741350612642E-04
-6.204624323483E+00  2.490649873908943E-02  9.385807919769032E-04
-6.164624323483E+00  2.555017331990087E-02  1.006997416660415E-03
-6.124624323483E+00  2.624161554309704E-02  1.084917230302322E-03
-6.084624323483E+00  2.698754934486308E-02  1.174374657793402E-03
-6.044624323483E+00  2.779614720703411E-02  1.278003199106966E-03
-6.004624323483E+00  2.867745582882565E-02  1.399263744237889E-03
-5.964624323483E+00  2.964398199005059E-02  1.542781687655258E-03
-5.924624323483E+00  3.071151289393081E-02  1.714856330156399E-03
-5.884624323483E+00  3.190028656406801E-02  1.924250823221018E-03
-5.844624323483E+00  3.323669594690777E-02  2.183453496488652E-03
-5.804624323483E+00  3.475582484298879E-02  2.510759879084592E-03
-5.764624323483E+00  3.650530934373419E-02  2.933842647063134E-03
-5.724624323483E+00  3.855135434366053E-02  3.496147615046142E-03
-5.684624323483E+00  4.098829875939636E-02  4.268953545012292E-03
-5.644624323483E+00  4.395396957689204E-02  5.375512636451751E-03
-5.604624323483E+00  4.765373211068528E-02  7.042879860743670E-03
-5.564624323483E+00  5.239269086798239E-02  9.722539029256662E-03
-5.524624323483E+00  5.858226101127626E-02  1.439625202893059E-02
-5.484624323483E+00  6.645860147756667E-02  2.339622259597283E-02
-5.444624323483E+00  7.382515039258196E-02  4.223250451123264E-02
-5.404624323483E+00  6.541102256764826E-02  7.721685913804555E-02
-5.364624323483E+00  1.427568666705733E-02  9.472557288780437E-02
-5.324624323483E+00 -1.755389423527239E-02  5.979706835375345E-02
-5.284624323483E+00 -1.503332220280981E-02  3.231668920082156E-02
-5.244624323483E+00 -6.408164410113881E-03  1.910845740509259E-02
-5.204624323483E+00  1.177015533336778E-03  1.271529213407777E-02
-5.164624323483E+00  7.242746641003469E-03  9.347739509147185E-03
-5.124624323483E+00  1.220493965037161E-02  7.453237629108082E-03
-5.084624323483E+00  1.645056358733200E-02  6.358874719326247E-03
-5.044624323483E+00  2.025969698002395E-02  5.749331939440661E-03
-5.004624323483E+00  2.383580451922589E-02  5.470158472604922E-03
-4.964624323483E+00  2.733814630346955E-02  5.448986171727790E-03
-4.924624323483E+00  3.090619816497795E-02  5.663490074873941E-03
-4.884624323483E+00  3.467926670090537E-02  6.131456170359311E-03
-4.844624323483E+00  3.881566133444230E-02  6.915926636195334E-03
-4.804624323483E+00  4.351588433403719E-02  8.148446619619616E-03
-4.764624323483E+00  4.905439654374417E-02  1.008640070229849E-02
-4.724624323483E+00  5.582028234189043E-02  1.325075314201941E-02
-4.684624323483E+00  6.432964186248348E-02  1.877753742122466E-02
-4.644624323483E+00  7.491546655602095E-02  2.936394784288022E-02
-4.604624323483E+00  8.517458724177292E-02  5.143330315151001E-02
-4.564624323483E+00  7.743730868712868E-02  9.276472135518279E-02
-4.524624323483E+00  1.840431418073089E-02  1.121073318805108E-01
-4.484624323483E+00 -1.098782386349480E-02  7.231614397198602E-02
-4.444624323483E+00 -4.947332231160425E-03  4.614266422591239E-02
-4.404624323483E+00  6.536501188721486E-03  3.364615005329081E-02
-4.364624323483E+00  2.041428629206761E-02  2.955108113450567E-02
-4.324624323483E+00  3.510028182053203E-02  3.360870596139959E-02
-4.284624323483E+00  4.883221962852363E-02  4.907972793651740E-02
-4.244624323483E+00  4.883110472386753E-02  8.294428953591579E-02
-4.204624323483E+00  1.501209835990332E-03  1.078437332121795E-01
-4.164624323483E+00 -3.190610211286478E-02  7.183836495933472E-02
-4.124624323483E+00 -2.580657954826887E-02  4.313687566544157E-02
-4.084624323483E+00 -1.210645913885555E-02  3.175345521182545E-02
-4.044624323483E+00  1.113711080950041E-04  3.139150409843938E-02
-4.004624323483E+00  4.978284157685501E-03  3.892804589313010E-02
-3.964624323483E+00 -1.518803691652257E-03  4.078163591727185E-02
-3.924624323483E+00  5.490081026994033E-04  3.498932018134047E-02
-3.884624323483E+00  5.383434116405962E-03  3.908102143401132E-02
-3.844624323483E+00 -4.104823528127565E-03  4.426347020229390E-02
-3.804624323483E+00 -9.915495321093129E-03  3.150261015661332E-02
-3.764624323483E+00 -3.053979406830988E-03  2.174222752131188E-02
-3.724624323483E+00  6.501874259212347E-03  1.802825293389504E-02
-3.684624323483E+00  1.652501830577748E-02  1.797589788401283E-02
