#Spectra: 1
Emin______Emax      -1.556462432348324E+01  2.443537567651676E+01
EminPole__EmaxPole  -5.383930493629766E+00  1.849368854576103E+01
dE________Gamma      4.000000000000000E-02  1.000000000000000E-01
Energy               Re[0]                  Im[0]                
-1.556462432348E+01  4.081491132940963E-03  2.013557776920862E-05
-1.552462432348E+01  4.545185110459575E-03  2.206870554346443E-05
-1.548462432348E+01  4.659197875527056E-03  2.261301347494601E-05
-1.544462432348E+01  4.717326437204292E-03  2.293670714459140E-05
-1.540462432348E+01  4.756634324927107E-03  2.318701770112494E-05
-1.536462432348E+01  4.787412531749339E-03  2.340479376344791E-05
-1.532462432348E+01  4.813642903858807E-03  2.360583503892939E-05
-1.528462432348E+01  4.837188534181323E-03  2.379753641035829E-05
-1.524462432348E+01  4.859037166425214E-03  2.398382342322796E-05
-1.520462432348E+01  4.879761238104115E-03  2.416697714825588E-05
-1.516462432348E+01  4.899715487972270E-03  2.434841752312492E-05
-1.512462432348E+01  4.919131581694856E-03  2.452907821916381E-05
-1.508462432348E+01  4.938167349964630E-03  2.470960157848189E-05
-1.504462432348E+01  4.956934151474404E-03  2.489044687936317E-05
-1.500462432348E+01  4.975512914540114E-03  2.507195376988860E-05
-1.496462432348E+01  4.993963968313418E-03  2.525438112228726E-05
-1.492462432348E+01  5.012333297868401E-03  2.543793174167420E-05
-1.488462432348E+01  5.030656653641332E-03  2.562276859224114E-05
-1.484462432348E+01  5.048962327239439E-03  2.580902575406001E-05
-1.480462432348E+01  5.067273072518227E-03  2.599681600462961E-05
-1.476462432348E+01  5.085607463924485E-03  2.618623617953337E-05
-1.472462432348E+01  5.103980875431419E-03  2.637737103662648E-05
-1.468462432348E+01  5.122406198189713E-03  2.657029609031100E-05
-1.464462432348E+01  5.140894374789915E-03  2.676507972342620E-05
-1.460462432348E+01  5.159454802583570E-03  2.696178478372304E-05
-1.456462432348E+01  5.178095642047410E-03  2.716046980686040E-05
-1.452462432348E+01  5.196824055303806E-03  2.736118996494316E-05
-1.448462432348E+01  5.215646392600240E-03  2.756399781076383E-05
-1.444462432348E+01  5.234568339548820E-03  2.776894386818206E-05
-1.440462432348E+01  5.253595034452771E-03  2.797607710537300E-05
-1.436462432348E+01  5.272731162597587E-03  2.818544531802291E-05
-1.432462432348E+01  5.291981032636705E-03  2.839709544266196E-05
-1.428462432348E+01  5.311348638936933E-03  2.861107381534607E-05
-1.424462432348E+01  5.330837712825104E-03  2.882742638726013E-05
-1.420462432348E+01  5.350451764994874E-03  2.904619890612973E-05
-1.416462432348E+01  5.370194120821955E-03  2.926743707032361E-05
-1.412462432348E+01  5.390067949953924E-03  2.949118666102013E-05
-1.408462432348E+01  5.410076291247574E-03  2.971749365666598E-05
-1.404462432348E+01  5.430222073904368E-03  2.994640433307807E-05
-1.400462432348E+01  5.450508135482045E-03  3.017796535186260E-05
-1.396462432348E+01  5.470937237325975E-03  3.041222383930070E-05
-1.392462432348E+01  5.491512077859482E-03  3.064922745743768E-05
-1.388462432348E+01  5.512235304089240E-03  3.088902446879047E-05
-1.384462432348E+01  5.533109521616416E-03  3.113166379583033E-05
-1.380462432348E+01  5.554137303392454E-03  3.137719507619516E-05
-1.376462432348E+01  5.575321197415327E-03  3.162566871442090E-05
-1.372462432348E+01  5.596663733529598E-03  3.187713593085120E-05
-1.368462432348E+01  5.618167429465559E-03  3.213164880827757E-05
-1.364462432348E+01  5.639834796230377E-03  3.238926033677634E-05
-1.360462432348E+01  5.661668342946301E-03  3.265002445713838E-05
-1.356462432348E+01  5.683670581215840E-03  3.291399610322962E-05
-1.352462432348E+01  5.705844029081538E-03  3.318123124357409E-05
-1.348462432348E+01  5.728191214637563E-03  3.345178692241214E-05
-1.344462432348E+01  5.750714679342292E-03  3.372572130045305E-05
-1.340462432348E+01  5.773416981073298E-03  3.400309369551818E-05
-1.336462432348E+01  5.796300696961048E-03  3.428396462324486E-05
-1.332462432348E+01  5.819368426031974E-03  3.456839583800678E-05
-1.328462432348E+01  5.842622791687545E-03  3.485645037418883E-05
-1.324462432348E+01  5.866066444042790E-03  3.514819258794489E-05
-1.320462432348E+01  5.889702062144268E-03  3.544368819955358E-05
-1.316462432348E+01  5.913532356085078E-03  3.574300433648228E-05
-1.312462432348E+01  5.937560069032495E-03  3.604620957726003E-05
-1.308462432348E+01  5.961787979181810E-03  3.635337399625621E-05
-1.304462432348E+01  5.986218901648370E-03  3.666456920945726E-05
-1.300462432348E+01  6.010855690308407E-03  3.697986842133015E-05
-1.296462432348E+01  6.035701239598503E-03  3.729934647285896E-05
-1.292462432348E+01  6.060758486281713E-03  3.762307989083948E-05
-1.288462432348E+01  6.086030411188513E-03  3.795114693851551E-05
-1.284462432348E+01  6.111520040939122E-03  3.828362766764002E-05
-1.280462432348E+01  6.137230449653646E-03  3.862060397204454E-05
-1.276462432348E+01  6.163164760655771E-03  3.896215964280009E-05
-1.272462432348E+01  6.189326148175212E-03  3.930838042505550E-05
-1.268462432348E+01  6.215717839054020E-03  3.965935407663803E-05
-1.264462432348E+01  6.242343114460693E-03  4.001517042850483E-05
-1.260462432348E+01  6.269205311617137E-03  4.037592144713508E-05
-1.256462432348E+01  6.296307825541636E-03  4.074170129895474E-05
-1.252462432348E+01  6.323654110812153E-03  4.111260641688980E-05
-1.248462432348E+01  6.351247683353266E-03  4.148873556914543E-05
-1.244462432348E+01  6.379092122250176E-03  4.187018993031266E-05
-1.240462432348E+01  6.407191071593175E-03  4.225707315490825E-05
-1.236462432348E+01  6.435548242355764E-03  4.264949145345687E-05
-1.232462432348E+01  6.464167414309436E-03  4.304755367122884E-05
-1.228462432348E+01  6.493052437978275E-03  4.345137136975172E-05
-1.224462432348E+01  6.522207236636407E-03  4.386105891121927E-05
-1.220462432348E+01  6.551635808351297E-03  4.427673354592624E-05
-1.216462432348E+01  6.581342228075800E-03  4.469851550286289E-05
-1.212462432348E+01  6.611330649792107E-03  4.512652808361012E-05
-1.208462432348E+01  6.641605308710362E-03  4.556089775968114E-05
-1.204462432348E+01  6.672170523525384E-03  4.600175427346422E-05
-1.200462432348E+01  6.703030698734154E-03  4.644923074292588E-05
-1.196462432348E+01  6.734190327017455E-03  4.690346377024577E-05
-1.192462432348E+01  6.765653991688886E-03  4.736459355455633E-05
-1.188462432348E+01  6.797426369214338E-03  4.783276400897577E-05
-1.184462432348E+01  6.829512231805519E-03  4.830812288212709E-05
-1.180462432348E+01  6.861916450090791E-03  4.879082188434903E-05
-1.176462432348E+01  6.894643995867084E-03  4.928101681881165E-05
-1.172462432348E+01  6.927699944936326E-03  4.977886771776424E-05
-1.168462432348E+01  6.961089480030404E-03  5.028453898415138E-05
-1.164462432348E+01  6.994817893828558E-03  5.079819953884761E-05
-1.160462432348E+01  7.028890592071110E-03  5.132002297377299E-05
-1.156462432348E+01  7.063313096774094E-03  5.185018771116634E-05
-1.152462432348E+01  7.098091049548962E-03  5.238887716930662E-05
-1.148462432348E+01  7.133230215031968E-03  5.293627993499114E-05
-1.144462432348E+01  7.168736484428197E-03  5.349258994309155E-05
-1.140462432348E+01  7.204615879175110E-03  5.405800666353119E-05
-1.136462432348E+01  7.240874554730783E-03  5.463273529604166E-05
-1.132462432348E+01  7.277518804492449E-03  5.521698697307919E-05
-1.128462432348E+01  7.314555063850805E-03  5.581097897130135E-05
-1.124462432348E+01  7.351989914386411E-03  5.641493493202825E-05
-1.120462432348E+01  7.389830088213944E-03  5.702908509113335E-05
-1.116462432348E+01  7.428082472481333E-03  5.765366651883882E-05
-1.112462432348E+01  7.466754114030275E-03  5.828892336991410E-05
-1.108462432348E+01  7.505852224225467E-03  5.893510714480614E-05
-1.104462432348E+01  7.545384183960154E-03  5.959247696226160E-05
-1.100462432348E+01  7.585357548845752E-03  6.026129984403194E-05
-1.096462432348E+01  7.625780054594079E-03  6.094185101229010E-05
-1.092462432348E+01  7.666659622600683E-03  6.163441420042286E-05
-1.088462432348E+01  7.708004365738738E-03  6.233928197790225E-05
-1.084462432348E+01  7.749822594372909E-03  6.305675608998439E-05
-1.080462432348E+01  7.792122822603671E-03  6.378714781302795E-05
-1.076462432348E+01  7.834913774752431E-03  6.453077832627341E-05
-1.072462432348E+01  7.878204392099113E-03  6.528797910097562E-05
-1.068462432348E+01  7.922003839883913E-03  6.605909230783999E-05
-1.064462432348E+01  7.966321514585642E-03  6.684447124376905E-05
-1.060462432348E+01  8.011167051490332E-03  6.764448077899477E-05
-1.056462432348E+01  8.056550332563483E-03  6.845949782573321E-05
-1.052462432348E+01  8.102481494641288E-03  6.928991182958006E-05
-1.048462432348E+01  8.148970937955887E-03  7.013612528493887E-05
-1.044462432348E+01  8.196029335011576E-03  7.099855427585835E-05
-1.040462432348E+01  8.243667639828993E-03  7.187762904374852E-05
-1.036462432348E+01  8.291897097576011E-03  7.277379458354446E-05
-1.032462432348E+01  8.340729254604521E-03  7.368751126998379E-05
-1.028462432348E+01  8.390175968914016E-03  7.461925551578827E-05
-1.024462432348E+01  8.440249421063693E-03  7.556952046365169E-05
-1.020462432348E+01  8.490962125556183E-03  7.653881671407493E-05
-1.016462432348E+01  8.542326942717596E-03  7.752767309122392E-05
-1.012462432348E+01  8.594357091099904E-03  7.853663744914439E-05
-1.008462432348E+01  8.647066160433189E-03  7.956627752083093E-05
-1.004462432348E+01  8.700468125157405E-03  8.061718181282051E-05
-1.000462432348E+01  8.754577358564584E-03  8.168996054818342E-05
-9.964624323483E+00  8.809408647584768E-03  8.278524666098046E-05
-9.924624323483E+00  8.864977208251043E-03  8.390369684549110E-05
-9.884624323483E+00  8.921298701881233E-03  8.504599266375580E-05
-9.844624323483E+00  8.978389252016042E-03  8.621284171524031E-05
-9.804624323483E+00  9.036265462156520E-03  8.740497887271977E-05
-9.764624323483E+00  9.094944434346242E-03  8.862316758878722E-05
-9.724624323483E+00  9.154443788646559E-03  8.986820127773869E-05
-9.684624323483E+00  9.214781683556909E-03  9.114090477794098E-05
-9.644624323483E+00  9.275976837435061E-03  9.244213590020444E-05
-9.604624323483E+00  9.338048550976839E-03  9.377278706810807E-05
-9.564624323483E+00  9.401016730818144E-03  9.513378705670430E-05
-9.524624323483E+00  9.464901914327120E-03  9.652610283654973E-05
-9.484624323483E+00  9.529725295658603E-03  9.795074153057431E-05
-9.444624323483E+00  9.595508753148706E-03  9.940875249191892E-05
-9.404624323483E+00  9.662274878132520E-03  1.009012295115493E-04
-9.364624323483E+00  9.730047005274448E-03  1.024293131651979E-04
-9.324624323483E+00  9.798849244506651E-03  1.039941933099927E-04
-9.284624323483E+00  9.868706514679070E-03  1.055971117420256E-04
-9.244624323483E+00  9.939644579031506E-03  1.072393650270944E-04
-9.204624323483E+00  1.001169008260723E-02  1.089223075179173E-04
-9.164624323483E+00  1.008487059173639E-02  1.106473545723155E-04
-9.124624323483E+00  1.015921463572779E-02  1.124159859881450E-04
-9.084624323483E+00  1.023475175091858E-02  1.142297496722121E-04
-9.044624323483E+00  1.031151252724287E-02  1.160902655619742E-04
-9.004624323483E+00  1.038952865749389E-02  1.179992298205898E-04
-8.964624323483E+00  1.046883298946826E-02  1.199584193278097E-04
-8.924624323483E+00  1.054945958119633E-02  1.219696964913506E-04
-8.884624323483E+00  1.063144375948022E-02  1.240350144057626E-04
-8.844624323483E+00  1.071482218197911E-02  1.261564223884418E-04
-8.804624323483E+00  1.079963290310277E-02  1.283360719253698E-04
-8.764624323483E+00  1.088591544399644E-02  1.305762230624237E-04
-8.724624323483E+00  1.097371086692454E-02  1.328792512817288E-04
-8.684624323483E+00  1.106306185438959E-02  1.352476549065839E-04
-8.644624323483E+00  1.115401279335148E-02  1.376840630830134E-04
-8.604624323483E+00  1.124660986494633E-02  1.401912443910628E-04
-8.564624323483E+00  1.134090114014102E-02  1.427721161446332E-04
-8.524624323483E+00  1.143693668180049E-02  1.454297544450093E-04
-8.484624323483E+00  1.153476865368982E-02  1.481674050603846E-04
-8.444624323483E+00  1.163445143698428E-02  1.509884952117394E-04
-8.404624323483E+00  1.173604175491521E-02  1.538966463544863E-04
-8.364624323483E+00  1.183959880624378E-02  1.568956880555408E-04
-8.324624323483E+00  1.194518440832205E-02  1.599896730770390E-04
-8.284624323483E+00  1.205286315057975E-02  1.631828937910348E-04
-8.244624323483E+00  1.216270255936233E-02  1.664799000643773E-04
-8.204624323483E+00  1.227477327514112E-02  1.698855187698711E-04
-8.164624323483E+00  1.238914924322761E-02  1.734048750990534E-04
-8.124624323483E+00  1.250590791924532E-02  1.770434158738902E-04
-8.084624323483E+00  1.262513049075084E-02  1.808069350797674E-04
-8.044624323483E+00  1.274690211655163E-02  1.847016018708982E-04
-8.004624323483E+00  1.287131218544351E-02  1.887339913322345E-04
-7.964624323483E+00  1.299845459629019E-02  1.929111183198979E-04
-7.924624323483E+00  1.312842806159290E-02  1.972404747458535E-04
-7.884624323483E+00  1.326133643695437E-02  2.017300707230310E-04
-7.844624323483E+00  1.339728907913383E-02  2.063884800455508E-04
-7.804624323483E+00  1.353640123572328E-02  2.112248905465417E-04
-7.764624323483E+00  1.367879446985560E-02  2.162491599549540E-04
-7.724624323483E+00  1.382459712379310E-02  2.214718779648093E-04
-7.684624323483E+00  1.397394482574638E-02  2.269044353379402E-04
-7.644624323483E+00  1.412698104485140E-02  2.325591009874680E-04
-7.604624323483E+00  1.428385769990076E-02  2.384491081376334E-04
-7.564624323483E+00  1.444473582819639E-02  2.445887508305159E-04
-7.524624323483E+00  1.460978632178844E-02  2.509934922571082E-04
-7.484624323483E+00  1.477919073940724E-02  2.576800866356137E-04
-7.444624323483E+00  1.495314220361257E-02  2.646667166519525E-04
-7.404624323483E+00  1.513184639410959E-02  2.719731488262131E-04
-7.364624323483E+00  1.531552264985183E-02  2.796209095866486E-04
-7.324624323483E+00  1.550440519452222E-02  2.876334853352079E-04
-7.284624323483E+00  1.569874450230890E-02  2.960365503949276E-04
-7.244624323483E+00  1.589880882365130E-02  3.048582274639774E-04
-7.204624323483E+00  1.610488589391393E-02  3.141293860944959E-04
-7.164624323483E+00  1.631728485186255E-02  3.238839858053408E-04
-7.124624323483E+00  1.653633839951552E-02  3.341594717760431E-04
-7.084624323483E+00  1.676240524059371E-02  3.449972327179685E-04
-7.044624323483E+00  1.699587284162281E-02  3.564431325594677E-04
-7.004624323483E+00  1.723716056802990E-02  3.685481301203389E-04
-6.964624323483E+00  1.748672325767929E-02  3.813690041246554E-04
-6.924624323483E+00  1.774505530666929E-02  3.949692048900839E-04
-6.884624323483E+00  1.801269535744130E-02  4.094198590737755E-04
-6.844624323483E+00  1.829023169809751E-02  4.248009602648565E-04
-6.804624323483E+00  1.857830850526150E-02  4.412027864127567E-04
-6.764624323483E+00  1.887763309213283E-02  4.587275956362496E-04
-6.724624323483E+00  1.918898436027770E-02  4.774916656393624E-04
-6.684624323483E+00  1.951322270040204E-02  4.976277598196286E-04
-6.644624323483E+00  1.985130164687696E-02  5.192881266427724E-04
-6.604624323483E+00  2.020428166716611E-02  5.426481699959251E-04
-6.564624323483E+00  2.057334656602625E-02  5.679109698570794E-04
-6.524624323483E+00  2.095982311293830E-02  5.953128887597070E-04
-6.484624323483E+00  2.136520467006303E-02  6.251305759659462E-04
-6.444624323483E+00  2.179117982161523E-02  6.576897863709815E-04
-6.404624323483E+00  2.223966730437400E-02  6.933765772501536E-04
-6.364624323483E+00  2.271285894226571E-02  7.326516513276963E-04
-6.324624323483E+00  2.321327283765011E-02  7.760689068768040E-04
-6.284624323483E+00  2.374381982952644E-02  8.242996768525030E-04
-6.244624323483E+00  2.430788728520295E-02  8.781647549825041E-04
-6.204624323483E+00  2.490944578322839E-02  9.386772209222899E-04
-6.164624323483E+00  2.555318637878903E-02  1.007100455794698E-03
-6.124624323483E+00  2.624469923846097E-02  1.085027857431322E-03
-6.084624323483E+00  2.699070899204101E-02  1.174494080470753E-03
-6.044624323483E+00  2.779938897872074E-02  1.278132928095207E-03
-6.004624323483E+00  2.868078697092295E-02  1.399405696965113E-03
-5.964624323483E+00  2.964741111055041E-02  1.542938336855007E-03
-5.924624323483E+00  3.071505035601254E-02  1.715030922257086E-03
-5.884624323483E+00  3.190394503082328E-02  1.924447707416650E-03
-5.844624323483E+00  3.324049115134378E-02  2.183678635009008E-03
-5.804624323483E+00  3.475977670027032E-02  2.511021664852532E-03
-5.764624323483E+00  3.650944359536240E-02  2.934153264541605E-03
-5.724624323483E+00  3.855570504648183E-02  3.496525407401245E-03
-5.684624323483E+00  4.099291213740059E-02  4.269427350992607E-03
-5.644624323483E+00  4.395891006276779E-02  5.376130238563139E-03
-5.604624323483E+00  4.765909167092804E-02  7.043725680048084E-03
-5.564624323483E+00  5.239860162296865E-02  9.723774438759407E-03
-5.524624323483E+00  5.858890005768808E-02  1.439821572318738E-02
-5.484624323483E+00  6.646609912339577E-02  2.339969337165028E-02
-5.444624323483E+00  7.383284192638487E-02  4.223922627518945E-02
-5.404624323483E+00  6.541437263445435E-02  7.722828541831736E-02
-5.364624323483E+00  1.427105499497408E-02  9.473197567673629E-02
-5.324624323483E+00 -1.755593751097839E-02  5.979863128202266E-02
-5.284624323483E+00 -1.503363372387972E-02  3.231760480445023E-02
-5.244624323483E+00 -6.407742531824178E-03  1.910917133196367E-02
-5.204624323483E+00  1.177871606261933E-03  1.271584079756472E-02
-5.164624323483E+00  7.243911716222586E-03  9.348154952715399E-03
-5.124624323483E+00  1.220633488567669E-02  7.453546326337087E-03
-5.084624323483E+00  1.645212821048551E-02  6.359093276925097E-03
-5.044624323483E+00  2.026137818727405E-02  5.749467608191127E-03
-5.004624323483E+00  2.383755143938044E-02  5.470209901954529E-03
-4.964624323483E+00  2.733990487820036E-02  5.448943031048437E-03
-4.924624323483E+00  3.090790565017249E-02  5.663330959151652E-03
-4.884624323483E+00  3.468084469342812E-02  6.131143910918957E-03
-4.844624323483E+00  3.881700590669832E-02  6.915399103315644E-03
-4.804624323483E+00  4.351685114693993E-02  8.147598739404953E-03
-4.764624323483E+00  4.905477783554103E-02  1.008504769368702E-02
-4.724624323483E+00  5.581977299484624E-02  1.324854993282337E-02
-4.684624323483E+00  6.432780425198426E-02  1.877378649512959E-02
-4.644624323483E+00  7.491180012681041E-02  2.935710622487923E-02
-4.604624323483E+00  8.516943293257156E-02  5.141980715484640E-02
-4.564624323483E+00  7.743678102962229E-02  9.273866651978667E-02
-4.524624323483E+00  1.842481768263049E-02  1.120763799758863E-01
-4.484624323483E+00 -1.095569890435890E-02  7.229878697251646E-02
-4.444624323483E+00 -4.913811954076069E-03  4.613491858299328E-02
-4.404624323483E+00  6.570771380030114E-03  3.364460021398048E-02
-4.364624323483E+00  2.044994710222394E-02  2.955487588370942E-02
-4.324624323483E+00  3.513873809361679E-02  3.361901089408546E-02
-4.284624323483E+00  4.887408208194927E-02  4.910142624392660E-02
-4.244624323483E+00  4.886929345573079E-02  8.298746224846441E-02
-4.204624323483E+00  1.507659565965656E-03  1.079036800528134E-01
-4.164624323483E+00 -3.192472324085822E-02  7.187683946110800E-02
-4.124624323483E+00 -2.582556744739326E-02  4.315671010686897E-02
-4.084624323483E+00 -1.212111449684288E-02  3.176410653238122E-02
-4.044624323483E+00  1.003113743303376E-04  3.139725220787848E-02
-4.004624323483E+00  4.969914517388414E-03  3.892969403351305E-02
-3.964624323483E+00 -1.522414610852414E-03  4.077994626136951E-02
-3.924624323483E+00  5.487722685281560E-04  3.498718221937106E-02
-3.884624323483E+00  5.385738705559671E-03  3.907686592299381E-02
-3.844624323483E+00 -4.096277110026310E-03  4.425747688298922E-02
-3.804624323483E+00 -9.901393453317314E-03  3.150020248012418E-02
-3.764624323483E+00 -3.037600095118251E-03  2.174319409818819E-02
-3.724624323483E+00  6.520277252515862E-03  1.803153815047454E-02
-3.684624323483E+00  1.654618521438147E-02  1.798142060608077E-02
