#Spectra: 1
Emin______Emax      -1.556462432348325E+01  2.443537567651675E+01
EminPole__EmaxPole  -5.383930493629777E+00  1.849368854576101E+01
dE________Gamma      4.000000000000000E-02  1.000000000000000E-01
Energy               Re[0]                  Im[0]                
-1.556462432348E+01  2.657264126407286E-03  7.377109350222314E-05
-1.552462432348E+01  3.012752334556902E-03  7.564797361806362E-05
-1.548462432348E+01  3.320676845731698E-03  7.734456065077453E-05
-1.544462432348E+01  3.572859290944756E-03  7.882766501711745E-05
-1.540462432348E+01  3.774951684693064E-03  8.011919526934907E-05
-1.536462432348E+01  3.937021956515977E-03  8.125876162704539E-05
-1.532462432348E+01  4.068611603245542E-03  8.228400599047098E-05
-1.528462432348E+01  4.177303600051752E-03  8.322487865913150E-05
-1.524462432348E+01  4.268748450876042E-03  8.410371665901102E-05
-1.520462432348E+01  4.347071134397814E-03  8.493684283576765E-05
-1.516462432348E+01  4.415280151204775E-03  8.573617868436481E-05
-1.512462432348E+01  4.475587459507492E-03  8.651050684583732E-05
-1.508462432348E+01  4.529639034040149E-03  8.726638103921605E-05
-1.504462432348E+01  4.578676329425763E-03  8.800876321035649E-05
-1.500462432348E+01  4.623648640956657E-03  8.874146679567573E-05
-1.496462432348E+01  4.665291614207217E-03  8.946746633505292E-05
-1.492462432348E+01  4.704182602781117E-03  9.018911569801065E-05
-1.488462432348E+01  4.740780150151839E-03  9.090830366295300E-05
-1.484462432348E+01  4.775452498821508E-03  9.162656621357072E-05
-1.480462432348E+01  4.808498435920767E-03  9.234516861773387E-05
-1.476462432348E+01  4.840162723848775E-03  9.306516616432137E-05
-1.472462432348E+01  4.870647658613494E-03  9.378744964503560E-05
-1.468462432348E+01  4.900121825823282E-03  9.451277980156176E-05
-1.464462432348E+01  4.928726804955742E-03  9.524181369779346E-05
-1.460462432348E+01  4.956582354601345E-03  9.597512511677045E-05
-1.456462432348E+01  4.983790461023691E-03  9.671322048876923E-05
-1.452462432348E+01  5.010438527488194E-03  9.745655144329439E-05
-1.448462432348E+01  5.036601907831145E-03  9.820552478604086E-05
-1.444462432348E+01  5.062345934999196E-03  9.896051049401903E-05
-1.440462432348E+01  5.087727557297071E-03  9.972184817235345E-05
-1.436462432348E+01  5.112796667438460E-03  1.004898523073907E-04
-1.432462432348E+01  5.137597189189998E-03  1.012648165708089E-04
-1.428462432348E+01  5.162167971346052E-03  1.020470173701841E-04
-1.424462432348E+01  5.186543527516119E-03  1.028367167971855E-04
-1.420462432348E+01  5.210754651719627E-03  1.036341650911939E-04
-1.416462432348E+01  5.234828933332786E-03  1.044396027107839E-04
-1.412462432348E+01  5.258791189993216E-03  1.052532620861000E-04
-1.408462432348E+01  5.282663833258497E-03  1.060753691101962E-04
-1.404462432348E+01  5.306467178857086E-03  1.069061444157936E-04
-1.400462432348E+01  5.330219711057921E-03  1.077458044748373E-04
-1.396462432348E+01  5.353938308866669E-03  1.085945625510993E-04
-1.392462432348E+01  5.377638440318036E-03  1.094526295304394E-04
-1.388462432348E+01  5.401334329989228E-03  1.103202146488426E-04
-1.384462432348E+01  5.425039103943401E-03  1.111975261347709E-04
-1.380462432348E+01  5.448764915576678E-03  1.120847717794866E-04
-1.376462432348E+01  5.472523055246333E-03  1.129821594466710E-04
-1.372462432348E+01  5.496324046075559E-03  1.138898975307819E-04
-1.368462432348E+01  5.520177727935614E-03  1.148081953720467E-04
-1.364462432348E+01  5.544093331283784E-03  1.157372636347380E-04
-1.360462432348E+01  5.568079542270099E-03  1.166773146543338E-04
-1.356462432348E+01  5.592144560306023E-03  1.176285627583194E-04
-1.352462432348E+01  5.616296149107250E-03  1.185912245646786E-04
-1.348462432348E+01  5.640541682070770E-03  1.195655192615313E-04
-1.344462432348E+01  5.664888182720435E-03  1.205516688708935E-04
-1.340462432348E+01  5.689342360849324E-03  1.215498984991195E-04
-1.336462432348E+01  5.713910644897798E-03  1.225604365762477E-04
-1.332462432348E+01  5.738599211031685E-03  1.235835150861825E-04
-1.328462432348E+01  5.763414009320946E-03  1.246193697894017E-04
-1.324462432348E+01  5.788360787365477E-03  1.256682404396753E-04
-1.320462432348E+01  5.813445111668877E-03  1.267303709961091E-04
-1.316462432348E+01  5.838672387021741E-03  1.278060098316751E-04
-1.312462432348E+01  5.864047874122522E-03  1.288954099392767E-04
-1.308462432348E+01  5.889576705635525E-03  1.299988291362809E-04
-1.304462432348E+01  5.915263900860458E-03  1.311165302683663E-04
-1.300462432348E+01  5.941114379166978E-03  1.322487814134593E-04
-1.296462432348E+01  5.967132972329349E-03  1.333958560864683E-04
-1.292462432348E+01  5.993324435879857E-03  1.345580334454672E-04
-1.288462432348E+01  6.019693459586593E-03  1.357355984999397E-04
-1.284462432348E+01  6.046244677148440E-03  1.369288423216557E-04
-1.280462432348E+01  6.072982675190038E-03  1.381380622587182E-04
-1.276462432348E+01  6.099912001630388E-03  1.393635621532984E-04
-1.272462432348E+01  6.127037173490464E-03  1.406056525635477E-04
-1.268462432348E+01  6.154362684198367E-03  1.418646509901690E-04
-1.264462432348E+01  6.181893010444609E-03  1.431408821081093E-04
-1.260462432348E+01  6.209632618634209E-03  1.444346780038291E-04
-1.256462432348E+01  6.237585970978014E-03  1.457463784186008E-04
-1.252462432348E+01  6.265757531261238E-03  1.470763309982805E-04
-1.248462432348E+01  6.294151770323464E-03  1.484248915500021E-04
-1.244462432348E+01  6.322773171281259E-03  1.497924243062409E-04
-1.240462432348E+01  6.351626234521462E-03  1.511793021966984E-04
-1.236462432348E+01  6.380715482490867E-03  1.525859071284692E-04
-1.232462432348E+01  6.410045464305445E-03  1.540126302749579E-04
-1.228462432348E+01  6.439620760200588E-03  1.554598723740193E-04
-1.224462432348E+01  6.469445985841793E-03  1.569280440358165E-04
-1.220462432348E+01  6.499525796513743E-03  1.584175660608961E-04
-1.216462432348E+01  6.529864891204329E-03  1.599288697690046E-04
-1.212462432348E+01  6.560468016598912E-03  1.614623973391746E-04
-1.208462432348E+01  6.591339970998884E-03  1.630186021616445E-04
-1.204462432348E+01  6.622485608177818E-03  1.645979492021832E-04
-1.200462432348E+01  6.653909841187513E-03  1.662009153794198E-04
-1.196462432348E+01  6.685617646125426E-03  1.678279899558046E-04
-1.192462432348E+01  6.717614065874352E-03  1.694796749428468E-04
-1.188462432348E+01  6.749904213824727E-03  1.711564855213149E-04
-1.184462432348E+01  6.782493277589106E-03  1.728589504771000E-04
-1.180462432348E+01  6.815386522718301E-03  1.745876126534933E-04
-1.176462432348E+01  6.848589296427952E-03  1.763430294206487E-04
-1.172462432348E+01  6.882107031344091E-03  1.781257731630453E-04
-1.168462432348E+01  6.915945249276059E-03  1.799364317858078E-04
-1.164462432348E+01  6.950109565024700E-03  1.817756092407725E-04
-1.160462432348E+01  6.984605690233642E-03  1.836439260732518E-04
-1.156462432348E+01  7.019439437291500E-03  1.855420199904722E-04
-1.152462432348E+01  7.054616723292373E-03  1.874705464527401E-04
-1.148462432348E+01  7.090143574062229E-03  1.894301792884153E-04
-1.144462432348E+01  7.126026128258570E-03  1.914216113338570E-04
-1.140462432348E+01  7.162270641550697E-03  1.934455550995438E-04
-1.136462432348E+01  7.198883490888230E-03  1.955027434636570E-04
-1.132462432348E+01  7.235871178865042E-03  1.975939303944638E-04
-1.128462432348E+01  7.273240338186489E-03  1.997198917029305E-04
-1.124462432348E+01  7.310997736247195E-03  2.018814258270617E-04
-1.120462432348E+01  7.349150279827572E-03  2.040793546495504E-04
-1.116462432348E+01  7.387705019916702E-03  2.063145243504109E-04
-1.112462432348E+01  7.426669156669817E-03  2.085878062963639E-04
-1.108462432348E+01  7.466050044508628E-03  2.109000979688411E-04
-1.104462432348E+01  7.505855197373299E-03  2.132523239325868E-04
-1.100462432348E+01  7.546092294134477E-03  2.156454368469466E-04
-1.096462432348E+01  7.586769184174946E-03  2.180804185220612E-04
-1.092462432348E+01  7.627893893150076E-03  2.205582810223035E-04
-1.088462432348E+01  7.669474628936937E-03  2.230800678194528E-04
-1.084462432348E+01  7.711519787782360E-03  2.256468549982281E-04
-1.080462432348E+01  7.754037960660478E-03  2.282597525169865E-04
-1.076462432348E+01  7.797037939850796E-03  2.309199055265388E-04
-1.072462432348E+01  7.840528725748400E-03  2.336284957502350E-04
-1.068462432348E+01  7.884519533918386E-03  2.363867429286570E-04
-1.064462432348E+01  7.929019802407202E-03  2.391959063324686E-04
-1.060462432348E+01  7.974039199324013E-03  2.420572863471956E-04
-1.056462432348E+01  8.019587630706145E-03  2.449722261339454E-04
-1.052462432348E+01  8.065675248683212E-03  2.479421133703410E-04
-1.048462432348E+01  8.112312459955197E-03  2.509683820762069E-04
-1.044462432348E+01  8.159509934600689E-03  2.540525145288475E-04
-1.040462432348E+01  8.207278615232386E-03  2.571960432730838E-04
-1.036462432348E+01  8.255629726517539E-03  2.604005532315336E-04
-1.032462432348E+01  8.304574785082709E-03  2.636676839210085E-04
-1.028462432348E+01  8.354125609822158E-03  2.669991317812902E-04
-1.024462432348E+01  8.404294332631627E-03  2.703966526229542E-04
-1.020462432348E+01  8.455093409589380E-03  2.738620642014074E-04
-1.016462432348E+01  8.506535632608116E-03  2.773972489247467E-04
-1.012462432348E+01  8.558634141582934E-03  2.810041567036233E-04
-1.008462432348E+01  8.611402437061487E-03  2.846848079518471E-04
-1.004462432348E+01  8.664854393464537E-03  2.884412967470799E-04
-1.000462432348E+01  8.719004272886577E-03  2.922757941616566E-04
-9.964624323483E+00  8.773866739507911E-03  2.961905517742809E-04
-9.924624323483E+00  8.829456874651713E-03  3.001879053741196E-04
-9.884624323483E+00  8.885790192521736E-03  3.042702788696884E-04
-9.844624323483E+00  8.942882656658343E-03  3.084401884158160E-04
-9.804624323483E+00  9.000750697152882E-03  3.127002467729844E-04
-9.764624323483E+00  9.059411228663527E-03  3.170531679144170E-04
-9.724624323483E+00  9.118881669277873E-03  3.215017718974534E-04
-9.684624323483E+00  9.179179960271041E-03  3.260489900170392E-04
-9.644624323483E+00  9.240324586810707E-03  3.306978702605211E-04
-9.604624323483E+00  9.302334599664898E-03  3.354515830844731E-04
-9.564624323483E+00  9.365229637970710E-03  3.403134275358896E-04
-9.524624323483E+00  9.429029953127794E-03  3.452868377419109E-04
-9.484624323483E+00  9.493756433883364E-03  3.503753897941506E-04
-9.444624323483E+00  9.559430632681004E-03  3.555828090558779E-04
-9.404624323483E+00  9.626074793350486E-03  3.609129779225995E-04
-9.364624323483E+00  9.693711880221041E-03  3.663699440691558E-04
-9.324624323483E+00  9.762365608746673E-03  3.719579292192313E-04
-9.284624323483E+00  9.832060477738791E-03  3.776813384762388E-04
-9.244624323483E+00  9.902821803307793E-03  3.835447702578877E-04
-9.204624323483E+00  9.974675754623210E-03  3.895530268804399E-04
-9.164624323483E+00  1.004764939161050E-02  3.957111258427055E-04
-9.124624323483E+00  1.012177070471069E-02  4.020243118642595E-04
-9.084624323483E+00  1.019706865683979E-02  4.084980697373117E-04
-9.044624323483E+00  1.027357322769451E-02  4.151381380570250E-04
-9.004624323483E+00  1.035131546056296E-02  4.219505239010696E-04
-8.964624323483E+00  1.043032751181157E-02  4.289415185357831E-04
-8.924624323483E+00  1.051064270323257E-02  4.361177142336041E-04
-8.884624323483E+00  1.059229557745184E-02  4.434860222945142E-04
-8.844624323483E+00  1.067532195661354E-02  4.510536923731677E-04
-8.804624323483E+00  1.075975900457494E-02  4.588283332233430E-04
-8.764624323483E+00  1.084564529286527E-02  4.668179349823399E-04
-8.724624323483E+00  1.093302087068377E-02  4.750308931302894E-04
-8.684624323483E+00  1.102192733923523E-02  4.834760342729544E-04
-8.644624323483E+00  1.111240793072795E-02  4.921626439119032E-04
-8.604624323483E+00  1.120450759238710E-02  5.011004963829521E-04
-8.564624323483E+00  1.129827307586793E-02  5.102998871628368E-04
-8.524624323483E+00  1.139375303248804E-02  5.197716677654223E-04
-8.484624323483E+00  1.149099811473618E-02  5.295272834726742E-04
-8.444624323483E+00  1.159006108455680E-02  5.395788141725345E-04
-8.404624323483E+00  1.169099692895713E-02  5.499390186060566E-04
-8.364624323483E+00  1.179386298353445E-02  5.606213823602397E-04
-8.324624323483E+00  1.189871906457895E-02  5.716401699814261E-04
-8.284624323483E+00  1.200562761047155E-02  5.830104816276273E-04
-8.244624323483E+00  1.211465383316615E-02  5.947483147272335E-04
-8.204624323483E+00  1.222586588062538E-02  6.068706311674328E-04
-8.164624323483E+00  1.233933501116613E-02  6.193954305989197E-04
-8.124624323483E+00  1.245513578076983E-02  6.323418305156605E-04
-8.084624323483E+00  1.257334624452128E-02  6.457301538505429E-04
-8.044624323483E+00  1.269404817346350E-02  6.595820249217071E-04
-8.004624323483E+00  1.281732728829257E-02  6.739204746716760E-04
-7.964624323483E+00  1.294327351147169E-02  6.887700562646099E-04
-7.924624323483E+00  1.307198123951675E-02  7.041569722484557E-04
-7.884624323483E+00  1.320354963740091E-02  7.201092146516881E-04
-7.844624323483E+00  1.333808295724731E-02  7.366567195723121E-04
-7.804624323483E+00  1.347569088372570E-02  7.538315380340668E-04
-7.764624323483E+00  1.361648890885303E-02  7.716680251367732E-04
-7.724624323483E+00  1.376059873921489E-02  7.902030498202872E-04
-7.684624323483E+00  1.390814873898802E-02  8.094762279023381E-04
-7.644624323483E+00  1.405927441255542E-02  8.295301814483088E-04
-7.604624323483E+00  1.421411893097464E-02  8.504108279965451E-04
-7.564624323483E+00  1.437283370709415E-02  8.721677037091005E-04
-7.524624323483E+00  1.453557902472452E-02  8.948543251605939E-04
-7.484624323483E+00  1.470252472796972E-02  9.185285952362780E-04
-7.444624323483E+00  1.487385097762672E-02  9.432532595078632E-04
-7.404624323483E+00  1.504974908248191E-02  9.690964205207711E-04
-7.364624323483E+00  1.523042241439295E-02  9.961321186944794E-04
-7.324624323483E+00  1.541608741726558E-02  1.024440990051979E-03
-7.284624323483E+00  1.560697472144478E-02  1.054111012808706E-03
-7.244624323483E+00  1.580333037666802E-02  1.085238357032762E-03
-7.204624323483E+00  1.600541721861570E-02  1.117928354219687E-03
-7.164624323483E+00  1.621351638627928E-02  1.152296606811501E-03
-7.124624323483E+00  1.642792900990628E-02  1.188470261562114E-03
-7.084624323483E+00  1.664897809222926E-02  1.226589475375485E-03
-7.044624323483E+00  1.687701060911281E-02  1.266809108029905E-03
-7.004624323483E+00  1.711239985974108E-02  1.309300683319346E-03
-6.964624323483E+00  1.735554810110299E-02  1.354254668934834E-03
-6.924624323483E+00  1.760688950692325E-02  1.401883136317094E-03
-6.884624323483E+00  1.786689349744173E-02  1.452422875307980E-03
-6.844624323483E+00  1.813606849368744E-02  1.506139055455061E-03
-6.804624323483E+00  1.841496615824745E-02  1.563329547251848E-03
-6.764624323483E+00  1.870418619411339E-02  1.624330043700372E-03
-6.724624323483E+00  1.900438178408168E-02  1.689520157046522E-03
-6.684624323483E+00  1.931626576541313E-02  1.759330709598812E-03
-6.644624323483E+00  1.964061764792360E-02  1.834252494185580E-03
-6.604624323483E+00  1.997829159806139E-02  1.914846853049242E-03
-6.564624323483E+00  2.033022552614198E-02  2.001758519246556E-03
-6.524624323483E+00  2.069745142742303E-02  2.095731289300369E-03
-6.484624323483E+00  2.108110713773661E-02  2.197627260024621E-03
-6.444624323483E+00  2.148244966681336E-02  2.308450580003704E-03
-6.404624323483E+00  2.190287026021977E-02  2.429376956351344E-03
-6.364624323483E+00  2.234391130220097E-02  2.561790546790919E-03
-6.324624323483E+00  2.280728508703588E-02  2.707330393040485E-03
-6.284624323483E+00  2.329489432305173E-02  2.867949266109820E-03
-6.244624323483E+00  2.380885393673392E-02  3.045988770552501E-03
-6.204624323483E+00  2.435151322334790E-02  3.244275895355317E-03
-6.164624323483E+00  2.492547649231987E-02  3.466248046542775E-03
-6.124624323483E+00  2.553361882219747E-02  3.716116146655636E-03
-6.084624323483E+00  2.617909093260908E-02  3.999078901532156E-03
-6.044624323483E+00  2.686530274843535E-02  4.321606149682877E-03
-6.004624323483E+00  2.759586768120404E-02  4.691815706083793E-03
-5.964624323483E+00  2.837447674615338E-02  5.119976611091381E-03
-5.924624323483E+00  2.920464948842897E-02  5.619182126314483E-03
-5.884624323483E+00  3.008927060000470E-02  6.206246848558605E-03
-5.844624323483E+00  3.102975563882564E-02  6.902889166670361E-03
-5.804624323483E+00  3.202457759363404E-02  7.737249535905227E-03
-5.764624323483E+00  3.306669955902632E-02  8.745732527028037E-03
-5.724624323483E+00  3.413916224176894E-02  9.974964694185051E-03
-5.684624323483E+00  3.520765464092575E-02  1.148314748967452E-02
-5.644624323483E+00  3.620847295215700E-02  1.333887809601505E-02
-5.604624323483E+00  3.703045552357775E-02  1.561297151825206E-02
-5.564624323483E+00  3.749223352524366E-02  1.835437871591928E-02
-5.524624323483E+00  3.732603627486766E-02  2.153659958384786E-02
-5.484624323483E+00  3.620185512571642E-02  2.496641801431029E-02
-5.444624323483E+00  3.385054092196630E-02  2.818851353629545E-02
-5.404624323483E+00  3.030696343335217E-02  3.050892811648536E-02
-5.364624323483E+00  2.611410445521901E-02  3.128019110179112E-02
-5.324624323483E+00  2.218157478510279E-02  3.032994505008640E-02
-5.284624323483E+00  1.929822917784366E-02  2.809967012680221E-02
-5.244624323483E+00  1.776706311899394E-02  2.532232428434063E-02
-5.204624323483E+00  1.745274508470212E-02  2.261439620946272E-02
-5.164624323483E+00  1.803764076806496E-02  2.031789447056203E-02
-5.124624323483E+00  1.921559908937469E-02  1.855297500532868E-02
-5.084624323483E+00  2.076229277684761E-02  1.732188772543345E-02
-5.044624323483E+00  2.253440421403366E-02  1.658485177903146E-02
-5.004624323483E+00  2.444697993042859E-02  1.630000116910939E-02
-4.964624323483E+00  2.645054692878772E-02  1.644074517291958E-02
-4.924624323483E+00  2.851290814782582E-02  1.700234815547891E-02
-4.884624323483E+00  3.060429060423004E-02  1.800417368656228E-02
-4.844624323483E+00  3.268282659782824E-02  1.948989106169348E-02
-4.804624323483E+00  3.467707167542625E-02  2.152472097543618E-02
-4.764624323483E+00  3.646290062042520E-02  2.418505442209621E-02
-4.724624323483E+00  3.783561553547252E-02  2.753033250973311E-02
-4.684624323483E+00  3.848971399504077E-02  3.154152809941543E-02
-4.644624323483E+00  3.804499414313137E-02  3.601682059636121E-02
-4.604624323483E+00  3.618643755902613E-02  4.046354619164227E-02
-4.564624323483E+00  3.294075758748382E-02  4.412909264870125E-02
-4.524624323483E+00  2.889968700565666E-02  4.633242117849586E-02
-4.484624323483E+00  2.503392193952867E-02  4.694826161497436E-02
-4.444624323483E+00  2.211856839017161E-02  4.654289889549234E-02
-4.404624323483E+00  2.031747566108284E-02  4.598516602145234E-02
-4.364624323483E+00  1.922657217882081E-02  4.595467450521291E-02
-4.324624323483E+00  1.815990636625360E-02  4.668301240742612E-02
-4.284624323483E+00  1.646447675273783E-02  4.789670231735815E-02
-4.244624323483E+00  1.384390229504953E-02  4.892012951475070E-02
-4.204624323483E+00  1.059520619238647E-02  4.902235757395967E-02
-4.164624323483E+00  7.477145245298284E-03  4.791396541011129E-02
-4.124624323483E+00  5.183845150439600E-03  4.594678077147451E-02
-4.084624323483E+00  3.916695268387378E-03  4.378145975643260E-02
-4.044624323483E+00  3.424514578895516E-03  4.191525735454611E-02
-4.004624323483E+00  3.324716700355373E-03  4.049626072894137E-02
-3.964624323483E+00  3.358156980240402E-03  3.943197818206343E-02
-3.924624323483E+00  3.438147920674126E-03  3.857391367047169E-02
-3.884624323483E+00  3.588165188418434E-03  3.780710149946304E-02
-3.844624323483E+00  3.913574645067696E-03  3.707478943450916E-02
-3.804624323483E+00  4.573544128939089E-03  3.644389294048849E-02
-3.764624323483E+00  5.664245174663522E-03  3.614823100911994E-02
-3.724624323483E+00  7.097817457610811E-03  3.650664659300478E-02
-3.684624323483E+00  8.583490425805322E-03  3.778812409856365E-02
